,time,angle,pressure,set_point,motor_speed,Filtered_angle
0,0.0634185000089928,-0.89,0.25,0.0,8,-0.8900000000000209
1,0.1246112000662833,-0.89,0.25,0.0,8,-0.8899999999999805
2,0.2177894000196829,-0.89,0.14,0.0,8,-0.8900000000000182
3,0.2631485000019893,-0.89,0.14,0.0,8,-0.8899999999999831
4,0.3130067000165581,-0.89,0.25,0.0,8,-0.8900000000000156
5,0.3750163000077009,-0.89,0.14,0.0,8,-0.8899999999999862
6,0.4187267000088468,-0.89,0.25,0.0,8,-0.890000000000012
7,0.4785117000574246,-0.89,0.14,0.0,8,-0.8899999999999902
8,0.681881400058046,-0.89,0.14,0.0,8,-0.8900000000000076
9,0.746648499974981,-0.89,0.25,0.0,8,-0.8899999999999947
10,0.8376096000429243,-0.89,0.14,0.0,8,-0.8900000000000031
11,0.8847759000491351,-0.89,0.25,0.0,8,-0.8899999999999991
12,0.929550900007598,-0.89,0.25,0.0,8,-0.8899999999999991
13,0.97770190006122,-0.89,0.25,0.0,8,-0.8900000000000022
14,1.0252878000028431,-0.89,0.25,0.0,8,-0.8899999999999969
15,1.073785200016573,-0.89,0.14,0.0,8,-0.8900000000000036
16,1.1213333000196144,-0.89,0.14,0.0,8,-0.8899999999999965
17,1.1830134000629189,-0.89,0.36,0.0,8,-0.8900000000000036
18,1.2304644000250846,-0.89,0.25,0.0,8,-0.8899999999999965
19,1.2775825000135228,-0.89,0.25,0.0,8,-0.890000000000004
20,1.3243901000823826,-0.89,0.14,0.0,8,-0.8899999999999951
21,1.371861799969338,-0.89,0.25,0.0,8,-0.8900000000000062
22,1.4314457000000402,-0.89,0.14,0.0,8,-0.889999999999992
23,1.49338150001131,-0.89,0.14,0.0,8,-0.8900000000000102
24,1.5707303000381216,-0.89,0.14,0.0,8,-0.8899999999999876
25,1.6190247000195086,-0.89,0.25,0.0,8,-0.8900000000000147
26,1.6781849000835791,-0.89,0.14,0.0,8,-0.889999999999984
27,1.7266015000641346,-0.89,0.14,0.0,8,-0.8900000000000169
28,1.7750801000511274,-0.89,0.14,0.0,8,-0.8899999999999822
29,1.8277018000371756,-0.89,0.14,0.0,8,-0.8900000000000187
30,1.883267099969089,-0.89,0.14,0.0,8,-0.8899999999999809
31,1.9299105000682173,-0.89,0.25,0.0,8,-0.8900000000000191
32,1.97748840006534,-0.89,0.25,0.0,8,-0.8899999999999814
33,2.0231038000201806,-0.89,0.14,0.0,8,-0.8900000000000178
34,2.0848942999728024,-0.89,0.25,0.0,8,-0.889999999999984
35,2.1307614999823272,-0.89,0.25,0.0,8,-0.8900000000000138
36,2.191272699972614,-0.89,0.25,0.0,8,-0.8899999999999885
37,2.270292800036259,-0.89,0.25,0.0,8,-0.8900000000000093
38,2.316524700028822,-0.89,0.14,0.0,8,-0.8899999999999929
39,2.37848459999077,-0.89,0.25,0.0,8,-0.8900000000000049
40,2.439193599973805,-0.89,0.25,0.0,8,-0.8899999999999973
41,2.485659600002691,-0.89,0.25,0.0,8,-0.8900000000000009
42,2.5326791000552475,-0.89,0.25,0.0,8,-0.8900000000000009
43,2.5778854000382125,-0.89,0.36,0.0,8,-0.8899999999999978
44,2.6256420999998227,-0.89,0.14,0.0,8,-0.8900000000000036
45,2.703240800066851,-0.89,0.25,0.0,8,-0.8899999999999956
46,2.750482300063595,-0.89,0.36,0.0,8,-0.8900000000000049
47,2.812328699976206,-0.89,0.14,0.0,8,-0.8899999999999956
48,2.859407200012356,-0.89,0.25,0.0,8,-0.8900000000000036
49,2.906990500050597,-0.89,0.25,0.0,8,-0.8899999999999978
50,2.9510959000326693,-0.89,0.14,0.0,8,-0.8900000000000009
51,2.998855500016361,-0.89,0.14,0.0,8,-0.8900000000000005
52,3.044374500052072,-0.89,0.14,0.0,8,-0.8899999999999982
53,3.091880000079982,-0.89,0.25,0.0,8,-0.8900000000000031
54,3.1380083999829367,-0.89,0.25,0.0,8,-0.8899999999999956
55,3.215435400023125,-0.89,0.25,0.0,8,-0.8900000000000062
56,3.263165000011213,-0.89,0.25,0.0,8,-0.8899999999999916
57,3.3092662000563,-0.89,0.14,0.0,8,-0.8900000000000111
58,3.356737000052817,-0.89,0.25,0.0,8,-0.8899999999999862
59,3.4038534000283107,-0.89,0.14,0.0,8,-0.890000000000016
60,3.450794800068252,-0.89,0.25,0.0,8,-0.8899999999999822
61,3.511590200010687,-0.89,0.25,0.0,8,-0.8900000000000191
62,3.5590819000499323,-0.89,0.14,0.0,8,-0.88999999999998
63,3.612622000044212,-0.89,0.14,0.0,8,-0.8900000000000204
64,3.653413900057785,-0.89,0.25,0.0,8,-0.8899999999999796
65,3.700359700014815,-0.89,0.25,0.0,8,-0.8900000000000204
66,3.745683400076814,-0.89,0.14,0.0,8,-0.8899999999999796
67,3.7929884999757633,-0.89,0.25,0.0,8,-0.8900000000000209
68,3.842663299990818,-0.89,0.25,0.0,8,-0.8899999999999783
69,3.887035600026138,-0.89,0.25,0.0,8,-0.8900000000000231
70,3.933572700014338,-0.89,0.14,0.0,8,-0.8899999999999756
71,3.979521100060083,-0.89,0.14,0.0,8,-0.8900000000000258
72,4.043856200063601,-0.89,0.25,0.0,8,-0.8899999999999729
73,4.104250199976377,-0.89,0.14,0.0,8,-0.8900000000000284
74,4.152114700060338,-0.89,0.25,0.0,8,-0.8899999999999707
75,4.198086100048386,-0.89,0.14,0.0,8,-0.8900000000000302
76,4.2584174000658095,-0.89,0.25,0.0,8,-0.8899999999999694
77,4.304521100013517,-0.89,0.25,0.0,8,-0.8900000000000307
78,4.3518503999803215,-0.89,0.14,0.0,8,-0.8899999999999698
79,4.399677700013854,-0.89,0.14,0.0,8,-0.8900000000000293
80,4.444681499968283,-0.89,0.14,0.0,8,-0.889999999999972
81,4.493456800002605,-0.89,0.25,0.0,8,-0.8900000000000262
82,4.554851100081578,-0.89,0.25,0.0,8,-0.8899999999999765
83,4.601098100072704,-0.89,0.14,0.0,8,-0.8900000000000204
84,4.649113700026646,-0.89,0.25,0.0,8,-0.8899999999999831
85,4.694968600058928,-0.89,0.25,0.0,8,-0.8900000000000129
86,4.743653999990784,-0.89,0.25,0.0,8,-0.8899999999999916
87,4.804969800054096,-0.89,0.14,0.0,8,-0.890000000000004
88,4.852193100028671,-0.89,0.25,0.0,8,-0.8900000000000005
89,4.91268160007894,-0.89,0.14,0.0,8,-0.8899999999999956
90,4.9748799999943,-0.89,0.14,0.0,8,-0.8900000000000085
91,5.039948799996637,-0.89,0.14,0.0,8,-0.8899999999999876
92,5.116404699976556,-0.89,0.14,0.0,8,-0.890000000000016
93,5.161598599981517,-0.89,0.25,0.0,8,-0.8899999999999814
94,5.210130700026639,-0.89,0.14,0.0,8,-0.8900000000000204
95,5.258084099972621,-0.89,0.14,0.0,8,-0.8899999999999787
96,5.30400930007454,-0.89,0.14,0.0,8,-0.8900000000000218
97,5.35255439998582,-0.89,0.14,0.0,8,-0.8899999999999783
98,5.397768200025894,-0.89,0.14,0.0,8,-0.8900000000000213
99,5.45971239998471,-0.89,0.14,0.0,8,-0.8899999999999796
100,5.50828549999278,-0.89,0.14,0.0,8,-0.8900000000000196
101,5.556088000070304,-0.89,0.25,0.0,8,-0.8899999999999814
102,5.603396499995142,-0.89,0.25,0.0,8,-0.8900000000000178
103,5.6509134999942034,-0.89,0.25,0.0,8,-0.8899999999999831
104,5.697661200072616,-0.89,0.25,0.0,8,-0.890000000000016
105,5.759632300003432,-0.89,0.25,0.0,8,-0.8899999999999854
106,5.839483499992639,-0.89,0.25,0.0,8,-0.8900000000000133
107,5.882141900015995,-0.89,0.14,0.0,8,-0.889999999999988
108,5.943092799978331,-0.89,0.25,0.0,8,-0.8900000000000111
109,5.9906166000291705,-0.89,0.14,0.0,8,-0.8899999999999894
110,6.036333700059913,-0.89,0.14,0.0,8,-0.8900000000000102
111,6.098662600037642,-0.89,0.14,0.0,8,-0.8899999999999907
112,6.147145600058138,-0.89,0.14,0.0,8,-0.8900000000000085
113,6.194908300065436,-0.89,0.14,0.0,8,-0.889999999999992
114,6.241991100017913,-0.89,0.25,0.0,8,-0.890000000000008
115,6.290001600049436,-0.89,0.25,0.0,8,-0.8899999999999916
116,6.364963500062004,-0.89,0.14,0.0,8,-0.8900000000000093
117,6.411888799979352,-0.89,0.25,0.0,8,-0.8899999999999898
118,6.459778000018559,-0.89,0.25,0.0,8,-0.8900000000000111
119,6.507970400038175,-0.89,0.14,0.0,8,-0.889999999999988
120,6.569061400019564,-0.89,0.14,0.0,8,-0.8900000000000133
121,6.613963400013745,-0.89,0.14,0.0,8,-0.8899999999999854
122,6.676204600022174,-0.89,0.25,0.0,8,-0.890000000000016
123,6.75377930002287,-0.89,0.14,0.0,8,-0.8899999999999822
124,6.79996570001822,-0.89,0.14,0.0,8,-0.89000000000002
125,6.878493700060062,-0.89,0.14,0.0,8,-0.8899999999999778
126,6.92500889999792,-0.89,0.25,0.0,8,-0.8900000000000244
127,6.986979000037536,-0.89,0.25,0.0,8,-0.8899999999999734
128,7.0324318000348285,-0.89,0.14,0.0,8,-0.8900000000000293
129,7.079565200023353,-0.89,0.14,0.0,8,-0.889999999999968
130,7.126086600008421,-0.89,0.25,0.0,8,-0.8900000000000347
131,7.173995999968611,-0.89,0.25,0.0,8,-0.8899999999999632
132,7.219763500033878,-0.89,0.14,0.0,8,-0.8900000000000382
133,7.265197400003672,-0.89,0.25,0.0,8,-0.8899999999999614
134,7.312850799993612,-0.89,0.14,0.0,8,-0.8900000000000386
135,7.374833300011232,-0.89,0.14,0.0,8,-0.8899999999999623
136,7.437008799985051,-0.89,0.14,0.0,8,-0.890000000000036
137,7.528612600057386,-0.89,0.14,0.0,8,-0.8899999999999667
138,7.57597090001218,-0.89,0.14,0.0,8,-0.8900000000000298
139,7.620926500065252,-0.89,0.25,0.0,8,-0.8899999999999747
140,7.669639199972153,-0.89,0.14,0.0,8,-0.8900000000000204
141,7.714576700003818,-0.89,0.14,0.0,8,-0.8899999999999854
142,7.762005800032057,-0.89,0.14,0.0,8,-0.890000000000008
143,7.824489300022833,-0.89,0.25,0.0,8,-0.8899999999999996
144,7.872326100012287,-0.89,0.14,0.0,8,-0.8899999999999925
145,7.933787400019355,-0.89,0.14,0.0,8,-0.890000000000016
146,7.980580699979328,-0.89,0.14,0.0,8,-0.8899999999999751
147,8.027370600029826,-0.89,0.25,0.0,8,-0.8900000000000342
148,8.073617300018668,-0.89,0.25,0.0,8,-0.8899999999999565
149,8.122658999986015,-0.89,0.25,0.0,8,-0.8900000000000533
150,8.182500199996866,-0.89,0.14,0.0,8,-0.889999999999937
151,8.23112500004936,-0.89,0.14,0.0,8,-0.8900000000000728
152,8.276995000080206,-0.89,0.25,0.0,8,-0.8899999999999183
153,8.323630500002764,-0.89,0.25,0.0,8,-0.8900000000000893
154,8.370536100002937,-0.89,0.14,0.0,8,-0.8899999999999054
155,8.415796200046316,-0.89,0.14,0.0,8,-0.8900000000000977
156,8.463297700043768,-0.89,0.14,0.0,8,-0.8899999999999023
157,8.511491300072521,-0.89,0.25,0.0,8,-0.8900000000000942
158,8.573281400022097,-0.89,0.25,0.0,8,-0.889999999999913
159,8.62165880005341,-0.89,0.36,0.0,8,-0.8900000000000764
160,8.667434200062416,-0.89,0.14,0.0,8,-0.8899999999999383
161,8.728426199988462,-0.89,0.14,0.0,8,-0.8900000000000431
162,8.77681150007993,-0.89,0.14,0.0,8,-0.88999999999998
163,8.823128700023517,-0.89,0.25,0.0,8,-0.8899999999999925
164,8.883867800002918,-0.89,0.14,0.0,8,-0.8900000000000395
165,8.93137900007423,-0.89,0.14,0.0,8,-0.8899999999999245
166,8.979397300048731,-0.89,0.14,0.0,8,-0.890000000000115
167,9.026723799994215,-0.89,0.25,0.0,8,-0.8899999999998428
168,9.073601100011729,-0.89,0.25,0.0,8,-0.8900000000002016
169,9.119089900050312,-0.89,0.25,0.0,8,-0.8899999999997527
170,9.180039900005797,-0.89,0.25,0.0,8,-0.8900000000002936
171,9.226293100044131,-0.89,0.25,0.0,8,-0.8899999999996612
172,9.27221520000603,-0.89,0.14,0.0,8,-0.8900000000003824
173,9.319359200075269,-0.89,0.25,0.0,8,-0.8899999999995772
174,9.380162900080904,-0.89,0.14,0.0,8,-0.8900000000004588
175,9.427890600054525,-0.89,0.25,0.0,8,-0.8899999999995115
176,9.473639199975878,-0.89,0.14,0.0,8,-0.8900000000005107
177,9.535969899967313,-0.89,0.25,0.0,8,-0.8899999999994769
178,9.59765440004412,-0.89,0.25,0.0,8,-0.890000000000524
179,9.659545900067316,-0.89,0.25,0.0,8,-0.8899999999994889
180,9.70647590002045,-0.89,0.14,0.0,8,-0.8900000000004823
181,9.752845500013793,-0.89,0.25,0.0,8,-0.8899999999995648
182,9.801127600017937,-0.89,0.25,0.0,8,-0.8900000000003682
183,9.845798900001682,-0.89,0.25,0.0,8,-0.8899999999997211
184,9.893682800000532,-0.89,0.14,0.0,8,-0.8900000000001665
185,9.940714600030333,-0.89,0.14,0.0,8,-0.8899999999999698
186,9.991132900002412,-0.89,0.25,0.0,8,-0.8899999999998695
187,10.034853999968618,-0.89,0.14,0.0,8,-0.8900000000003158
188,10.08154739998281,-0.89,0.25,0.0,8,-0.8899999999994755
189,10.128410600009374,-0.89,0.25,0.0,8,-0.8900000000007554
190,10.191730999969876,-0.89,0.14,0.0,8,-0.8899999999989942
191,10.252835800056346,-0.89,0.25,0.0,8,-0.8900000000012728
192,10.29919519997202,-0.89,0.25,0.0,8,-0.8899999999984488
193,10.345334900077432,-0.89,0.25,0.0,8,-0.8900000000018359
194,10.392318599973803,-0.89,0.25,0.0,8,-0.8899999999978799
195,10.469984099967403,-0.89,0.14,0.0,8,-0.8900000000023963
196,10.51694260002114,-0.89,0.25,0.0,8,-0.8899999999973444
197,10.56365140003618,-0.89,0.14,0.0,8,-0.8900000000028884
198,10.62441539997235,-0.89,0.14,0.0,8,-0.8899999999969167
199,10.671675999998117,-0.89,0.25,0.0,8,-0.8900000000032294
200,10.71775820001494,-0.89,0.14,0.0,8,-0.8899999999966862
201,10.779849700047636,-0.89,0.36,0.0,8,-0.890000000003324
202,10.859352500061505,-0.89,0.25,0.0,8,-0.8899999999967533
203,10.907144200056791,-0.89,0.14,0.0,8,-0.8900000000030696
204,10.955745400045998,-0.89,0.25,0.0,8,-0.8899999999972205
205,11.016930700046942,-0.89,0.14,0.0,8,-0.8900000000023652
206,11.064028299995698,-0.89,0.14,0.0,8,-0.8899999999981832
207,11.10877040005289,-0.89,0.25,0.0,8,-0.8900000000011262
208,11.155077900039032,-0.89,0.14,0.0,8,-0.8899999999997122
209,11.201692200032994,-0.89,0.14,0.0,8,-0.8899999999992984
210,11.247665900038555,-0.89,0.25,0.0,8,-0.8900000000018412
211,11.309931399999186,-0.89,0.25,0.0,8,-0.889999999996875
212,11.37260060000699,-0.89,0.14,0.0,8,-0.8900000000045439
213,11.41906480002217,-0.89,0.25,0.0,8,-0.8899999999939178
214,11.465145700029096,-0.89,0.14,0.0,8,-0.8900000000077196
215,11.5131710000569,-0.89,0.36,0.0,8,-0.8899999999905711
216,11.56007780006621,-0.89,0.14,0.0,8,-0.8900000000111769
217,11.606574999983422,-0.89,0.14,0.0,8,-0.889999999987077
218,11.653113499982284,-0.89,0.14,0.0,8,-0.8900000000146203
219,11.715144300018435,-0.89,0.14,0.0,8,-0.8899999999837854
220,11.763027400011197,-0.89,0.14,0.0,8,-0.8900000000176463
221,11.80923110002186,-0.89,0.14,0.0,8,-0.8899999999811502
222,11.88550450000912,-0.89,0.14,0.0,8,-0.890000000019754
223,11.932372000068426,-0.89,0.25,0.0,8,-0.8899999999797158
224,11.97868409997318,-0.89,0.25,0.0,8,-0.8900000000203633
225,12.02646059996914,-0.89,0.14,0.0,8,-0.8899999999800875
226,12.074044900014997,-0.89,0.25,0.0,8,-0.8900000000188543
227,12.121457000030205,-0.89,0.25,0.0,8,-0.8899999999828866
228,12.168368900078349,-0.89,0.14,0.0,8,-0.8900000000146208
229,12.214834799990058,-0.89,0.25,0.0,8,-0.8899999999886846
230,12.262385500012895,-0.89,0.25,0.0,8,-0.8900000000071476
231,12.30887900001835,-0.89,0.14,0.0,8,-0.8899999999979177
232,12.356309600058012,-0.89,0.14,0.0,8,-0.8899999999961027
233,12.402976599987596,-0.89,0.25,0.0,8,-0.8900000000107869
234,12.450580200063996,-0.89,0.14,0.0,8,-0.8899999999814433
235,12.498898899997585,-0.89,0.25,0.0,8,-0.890000000027149
236,12.559670999995433,-0.89,0.14,0.0,8,-0.8899999999635261
237,12.606616200064307,-0.89,0.14,0.0,8,-0.8900000000464073
238,12.652764500002377,-0.89,0.25,0.0,8,-0.889999999943213
239,12.729738499969244,-0.89,0.25,0.0,8,-0.8900000000674119
240,12.776332900044508,-0.89,0.25,0.0,8,-0.8899999999219611
241,12.823338499991223,-0.89,0.14,0.0,8,-0.8900000000883849
242,12.883785100071693,-0.89,0.14,0.0,8,-0.889999999901875
243,12.944991399999708,-0.89,0.14,0.0,8,-0.8900000001068967
244,13.007133700069971,-0.89,0.25,0.0,8,-0.8899999998856986
245,13.083024600055069,-0.89,0.25,0.0,8,-0.8900000001199099
246,13.129422500031067,-0.89,0.36,0.0,8,-0.8899999998767328
247,13.175743900006635,-0.89,0.25,0.0,8,-0.8900000001239018
248,13.253676400054246,-0.89,0.14,0.0,8,-0.8899999998786655
249,13.301396899973042,-0.89,0.14,0.0,8,-0.8900000001150906
250,13.34668870002497,-0.89,0.25,0.0,8,-0.8899999998952869
251,13.394382399972528,-0.89,0.25,0.0,8,-0.8900000000897775
252,13.442008799989708,-0.89,0.14,0.0,8,-0.8899999999300915
253,13.489446300081909,-0.89,0.14,0.0,8,-0.8900000000447997
254,13.53713670000434,-0.89,0.25,0.0,8,-0.8899999999857674
255,13.5829632000532,-0.89,0.25,0.0,8,-0.8899999999780975
256,13.6309396000579,-0.89,0.14,0.0,8,-0.8900000000635856
257,13.678457000060009,-0.89,0.25,0.0,8,-0.8899999998893552
258,13.726631400058976,-0.89,0.14,0.0,8,-0.8900000001627352
259,13.788005499984138,-0.89,0.25,0.0,8,-0.8899999997806812
260,13.832706700079145,-0.89,0.14,0.0,8,-0.890000000279647
261,13.880607399973089,-0.89,0.14,0.0,8,-0.8899999996572568
262,13.927141800057145,-0.89,0.25,0.0,8,-0.8900000004073919
263,13.975657199975103,-0.89,0.14,0.0,8,-0.8899999995278706
264,14.022211899980904,-0.89,0.14,0.0,8,-0.8900000005352421
265,14.081801800057292,-0.89,0.14,0.0,8,-0.8899999994052327
266,14.12894690001849,-0.89,0.14,0.0,8,-0.8900000006485066
267,14.175957400002517,-0.89,0.14,0.0,8,-0.8899999993059574
268,14.238396600005215,-0.89,0.25,0.0,8,-0.8900000007287668
269,14.28364010003861,-0.89,0.14,0.0,8,-0.889999999250083
270,14.330878800014034,-0.89,0.25,0.0,8,-0.8900000007546248
271,14.391867400030604,-0.89,0.25,0.0,8,-0.8899999992600266
272,14.440319700050168,-0.89,0.25,0.0,8,-0.8900000007030692
273,14.48613880004268,-0.89,0.14,0.0,8,-0.8899999993588791
274,14.532535800011829,-0.89,0.14,0.0,8,-0.890000000551533
275,14.578301000059582,-0.89,0.25,0.0,8,-0.8899999995679918
276,14.643576600006782,-0.89,0.25,0.0,8,-0.8900000002806591
277,14.69380240002647,-0.89,0.14,0.0,8,-0.8899999999038725
278,14.762380999978632,-0.89,0.25,0.0,8,-0.8899999998777116
279,14.825343600008637,-0.89,0.14,0.0,8,-0.8900000003745044
280,14.902002400020136,-0.89,0.14,0.0,8,-0.8899999993404805
281,14.949573799967766,-0.89,0.25,0.0,8,-0.890000000975287
282,14.995063200010918,-0.89,0.14,0.0,8,-0.8899999986814094
283,15.059158300049605,-0.89,0.25,0.0,8,-0.8900000016849327
284,15.107011700049044,-0.89,0.14,0.0,8,-0.889999997931563
285,15.1523122000508,-0.89,0.14,0.0,8,-0.8900000024617721
286,15.198503000079654,-0.89,0.25,0.0,8,-0.8899999971439011
287,15.260698499972932,-0.89,0.25,0.0,8,-0.8900000032410519
288,15.308433800004424,-0.89,0.14,0.0,8,-0.8899999963952431
289,15.354165200027635,-0.89,0.25,0.0,8,-0.8900000039338928
290,15.405555200064557,-0.89,0.14,0.0,8,-0.8899999957861991
291,15.4484845000552,-0.89,0.25,0.0,8,-0.8900000044286499
292,15.493976400000976,-0.89,0.14,0.0,8,-0.8899999954383405
293,15.555477200075984,-0.89,0.14,0.0,8,-0.8900000045953881
294,15.603135799989104,-0.89,0.25,0.0,8,-0.8899999954879146
295,15.650063900044188,-0.89,0.14,0.0,8,-0.8900000042941162
296,15.696512500056995,-0.89,0.25,0.0,8,-0.8899999960755512
297,15.773517500027085,-0.89,0.25,0.0,8,-0.8900000033872136
298,15.839293000055475,-0.89,0.25,0.0,8,-0.8899999973316767
299,15.914792599971406,-0.89,0.25,0.0,8,-0.8900000017561535
300,15.960967799997889,-0.89,0.14,0.0,8,-0.8899999993577311
301,16.007152699981816,-0.89,0.25,0.0,8,-0.889999999322192
302,16.05477140005678,-0.89,0.25,0.0,8,-0.8900000022038074
303,16.100734199979343,-0.89,0.14,0.0,8,-0.8899999960700876
304,16.162974399980158,-0.89,0.14,0.0,8,-0.8900000058439738
305,16.22607750003226,-0.89,0.36,0.0,8,-0.8899999920732403
306,16.273173000081442,-0.89,0.25,0.0,8,-0.890000010151267
307,16.32096789998468,-0.89,0.14,0.0,8,-0.8899999875178762
308,16.367123399977572,-0.89,0.25,0.0,8,-0.8900000148751154
309,16.41372249997221,-0.89,0.25,0.0,8,-0.889999982723137
310,16.478936000028625,-0.89,0.25,0.0,8,-0.8900000196246957
311,16.52283430006355,-0.89,0.25,0.0,8,-0.8899999781532534
312,16.585631599999033,-0.89,0.14,0.0,8,-0.890000023862313
313,16.63464489998296,-0.89,0.25,0.0,8,-0.8899999744174892
314,16.677873700042255,-0.89,0.25,0.0,8,-0.8900000269112626
315,16.7246394000249,-0.89,0.25,0.0,8,-0.8899999722533581
316,16.771347200032324,-0.89,0.25,0.0,8,-0.8900000279826042
317,16.818235200014897,-0.89,0.14,0.0,8,-0.88999997248888
318,16.862984400009736,-0.89,0.14,0.0,8,-0.8900000262247242
319,16.948890900006518,-0.89,0.25,0.0,8,-0.889999975980518
320,17.035967800067738,-0.89,0.25,0.0,8,-0.8900000207983657
321,17.080589100020006,-0.89,0.25,0.0,8,-0.8899999835249822
322,17.128692500060424,-0.89,0.25,0.0,8,-0.890000010977868
323,17.17622540006414,-0.89,0.25,0.0,8,-0.8899999957454442
324,17.22281419998035,-0.89,0.25,0.0,8,-0.8899999962765895
325,17.26985030004289,-0.89,0.25,0.0,8,-0.8900000129558431
326,17.330885300063528,-0.89,0.14,0.0,8,-0.8899999765909875
327,17.378194499993697,-0.89,0.25,0.0,8,-0.8900000350108564
328,17.42565019999165,-0.89,0.14,0.0,8,-0.8899999523536025
329,17.47289410000667,-0.89,0.14,0.0,8,-0.8900000611535338
330,17.52004700002726,-0.89,0.14,0.0,8,-0.8899999246806302
331,17.582603799994104,-0.89,0.14,0.0,8,-0.8900000898772847
332,17.64303639996797,-0.89,0.25,0.0,8,-0.8899998954950646
333,17.689764800015837,-0.89,0.25,0.0,8,-0.890000118823412
334,17.753136400016956,-0.89,0.14,0.0,8,-0.889999867602241
335,17.829850399983115,-0.89,0.25,0.0,8,-0.890000144739083
336,17.876532200025395,-0.89,0.25,0.0,8,-0.889999844691541
337,17.924445600016043,-0.89,0.25,0.0,8,-0.8900001635228348
