,time,angle,pressure,set_point,motor_speed,Filtered_angle
0,0.0397434000005887,0.84,0.25,0.0,8,0.8400000000000021
1,0.0846323000005213,0.84,0.36,0.0,8,0.8400000000000021
2,0.1467210000009799,0.84,0.25,0.0,8,0.8400000000000021
3,0.2089974000009533,0.84,0.14,0.0,8,0.8400000000000021
4,0.2568868999987899,0.84,0.14,0.0,8,0.8400000000000021
5,0.3028230999989318,0.84,0.14,0.0,8,0.8400000000000021
6,0.3502187000012782,0.84,0.25,0.0,8,0.8400000000000021
7,0.3969791999988956,0.84,0.25,0.0,8,0.8400000000000021
8,0.4596856999996817,0.84,0.14,0.0,8,0.8400000000000021
9,0.5063898000007612,0.84,0.14,0.0,7,0.8400000000000021
10,0.5534998000002815,0.84,0.25,0.0,7,0.8400000000000021
11,0.6011687999998685,0.84,0.14,0.0,7,0.8400000000000021
12,0.6476885000010952,0.84,0.25,0.0,7,0.8400000000000021
13,0.6944221999983711,0.84,0.14,0.0,7,0.8400000000000021
14,0.7570505000003322,0.84,0.25,0.0,7,0.8400000000000021
15,0.8033914000006916,0.84,0.25,0.0,7,0.8400000000000021
16,0.8514572999993106,0.84,0.25,0.0,7,0.8400000000000021
17,0.8989909000010812,0.84,0.14,0.0,7,0.8400000000000021
18,0.9462299999977404,0.84,0.25,0.0,7,0.8400000000000021
19,1.0096569999986968,0.84,0.14,0.0,7,0.8400000000000021
20,1.0552726999994777,0.84,0.14,0.0,7,0.8400000000000021
21,1.1162703999980297,0.84,0.25,0.0,7,0.8400000000000021
22,1.1629350000002887,0.84,0.25,0.0,7,0.8400000000000021
23,1.2102907999978925,0.84,0.14,0.0,7,0.8400000000000021
24,1.2582390999996278,0.84,0.14,0.0,7,0.8400000000000021
25,1.3044128000001365,0.84,0.14,0.0,7,0.8400000000000021
26,1.3513017000004766,0.84,0.25,0.0,7,0.8400000000000021
27,1.3976374999983818,0.84,0.14,0.0,7,0.8400000000000021
28,1.4435487000009743,0.84,0.14,0.0,7,0.8400000000000021
29,1.4907755999993242,0.84,0.25,0.0,7,0.8400000000000021
30,1.5379499999980908,0.84,0.25,0.0,7,0.8400000000000021
31,1.585422500000277,0.84,0.25,0.0,7,0.8400000000000021
32,1.6324965999992855,0.84,0.25,0.0,7,0.8400000000000021
33,1.678610099999787,0.84,0.25,0.0,7,0.8400000000000021
34,1.7257347999984631,0.84,0.14,0.0,7,0.8400000000000021
35,1.7727205000010144,0.84,0.14,0.0,7,0.8400000000000021
36,1.881448600001022,0.84,0.25,0.0,6,0.8400000000000021
37,1.9294042000001357,0.84,0.25,0.0,6,0.8400000000000021
38,1.9766213000002608,0.84,0.25,0.0,6,0.8400000000000021
39,2.02356090000103,0.84,0.25,0.0,6,0.8400000000000021
40,2.071837200001028,0.84,0.14,0.0,6,0.8400000000000021
41,2.116811100000632,0.84,0.25,0.0,6,0.8400000000000021
42,2.164088300000003,0.84,0.25,0.0,6,0.8400000000000021
43,2.211953599999106,0.84,0.25,0.0,6,0.8400000000000021
44,2.258911699998862,0.84,0.14,0.0,6,0.8400000000000021
45,2.3064822999986063,0.84,0.25,0.0,6,0.8400000000000021
46,2.350410200000624,0.84,0.14,0.0,6,0.8400000000000021
47,2.3981104000013147,0.84,0.14,0.0,6,0.8400000000000021
48,2.4464851999982784,0.84,0.14,0.0,6,0.8400000000000021
49,2.4907835999983945,0.84,0.25,0.0,6,0.8400000000000021
50,2.552929699999368,0.84,0.14,0.0,6,0.8400000000000021
51,2.599319299999479,0.84,0.14,0.0,6,0.8400000000000021
52,2.678925399999571,0.84,0.25,0.0,6,0.8400000000000021
53,2.725513699999283,0.84,0.25,0.0,6,0.8400000000000021
54,2.774374500000704,0.84,0.25,0.0,6,0.8400000000000021
55,2.8204889000007825,0.84,0.25,0.0,6,0.8400000000000021
56,2.8667324999987613,0.84,0.14,0.0,6,0.8400000000000021
57,2.914417699998012,0.84,0.14,0.0,6,0.8400000000000021
58,2.9598721000002115,0.84,0.14,0.0,6,0.8400000000000021
59,3.0075178000006417,0.84,0.25,0.0,6,0.8400000000000021
60,3.0554368999983126,0.84,0.14,0.0,6,0.8400000000000021
61,3.101222900000721,0.84,0.25,0.0,5,0.8400000000000021
62,3.1484753000004275,0.84,0.14,0.0,5,0.8400000000000021
63,3.1954139999979816,0.84,0.14,0.0,5,0.8400000000000021
64,3.2423971999996866,0.84,0.14,0.0,5,0.8400000000000021
65,3.2910473000010825,0.84,0.25,0.0,5,0.8400000000000021
66,3.3393725999994786,0.84,0.25,0.0,5,0.8400000000000021
67,3.402210100000957,0.84,0.14,0.0,5,0.8400000000000021
68,3.446772299997974,0.84,0.14,0.0,5,0.8400000000000021
69,3.49368179999874,0.84,0.14,0.0,5,0.8400000000000021
70,3.5413187999984075,0.84,0.25,0.0,5,0.8400000000000021
71,3.602534699999524,0.84,0.25,0.0,5,0.8400000000000021
72,3.6486283999984153,0.84,0.25,0.0,5,0.8400000000000021
73,3.6958145999997214,0.84,0.14,0.0,5,0.8400000000000021
74,3.741291399997863,0.84,0.25,0.0,5,0.8400000000000021
75,3.7890035999989777,0.84,0.25,0.0,5,0.8400000000000021
76,3.849751199999446,0.84,0.25,0.0,5,0.8400000000000021
77,3.895092200000363,0.84,0.14,0.0,5,0.8400000000000021
78,3.94154780000099,0.84,0.14,0.0,5,0.8400000000000021
79,3.988387199999124,0.84,0.14,0.0,5,0.8400000000000021
80,4.035858999999618,0.84,0.14,0.0,5,0.8400000000000021
81,4.082370299998729,0.84,0.25,0.0,5,0.8400000000000021
82,4.1280079999996815,0.84,0.14,0.0,5,0.8400000000000021
83,4.174876199998835,0.84,0.14,0.0,5,0.8400000000000021
84,4.222840099999303,0.84,0.25,0.0,5,0.8400000000000021
85,4.267633999999816,0.84,0.14,0.0,5,0.8400000000000021
86,4.314155000000028,0.84,0.25,0.0,5,0.8400000000000021
87,4.361667699999089,0.84,0.03,0.0,5,0.8400000000000021
88,4.408385200000339,0.84,0.36,0.0,4,0.8400000000000021
89,4.457016600001225,0.84,0.14,0.0,4,0.8400000000000021
90,4.505075000000943,0.84,0.25,0.0,4,0.8400000000000021
91,4.567235599999549,0.84,0.25,0.0,4,0.8400000000000021
92,4.613281900001311,0.84,0.14,0.0,4,0.8400000000000021
93,4.661250099998142,0.84,0.14,0.0,4,0.8400000000000021
94,4.708673000000999,0.84,0.14,0.0,4,0.8400000000000021
95,4.775357899998198,0.84,0.25,0.0,4,0.8400000000000021
96,4.832939899999474,0.84,0.14,0.0,4,0.8400000000000021
97,4.879174199999397,0.84,0.25,0.0,4,0.8400000000000021
98,4.925296699999308,0.84,0.14,0.0,4,0.8400000000000021
99,4.973297000000457,0.84,0.25,0.0,4,0.8400000000000021
100,5.018835200000467,0.84,0.25,0.0,4,0.8400000000000021
101,5.067479599998478,0.84,0.03,0.0,4,0.8400000000000021
102,5.143699399999605,0.84,0.25,0.0,4,0.8400000000000021
103,5.190619599998172,0.84,0.14,0.0,4,0.8400000000000021
104,5.23776739999812,0.84,0.14,0.0,4,0.8400000000000021
105,5.284143699998822,0.84,0.25,0.0,4,0.8400000000000021
106,5.346132099999522,0.84,0.14,0.0,4,0.8400000000000021
107,5.396409500001028,0.84,0.14,0.0,4,0.8400000000000021
108,5.44023549999838,0.84,0.25,0.0,4,0.8400000000000021
109,5.5021928999995,0.84,0.25,0.0,4,0.8400000000000021
110,5.549903200000699,0.84,0.14,0.0,4,0.8400000000000021
111,5.597700300000724,0.84,0.14,0.0,4,0.8400000000000021
112,5.64423700000043,0.84,0.25,0.0,4,0.8400000000000021
113,5.691668899999058,0.84,0.25,0.0,3,0.8400000000000021
114,5.756063599998015,0.84,0.14,0.0,3,0.8400000000000021
115,5.802736400000867,0.84,0.14,0.0,3,0.8400000000000021
116,5.86217889999898,0.84,0.25,0.0,3,0.8400000000000021
117,5.907840899999428,0.84,0.14,0.0,3,0.8400000000000021
118,5.954905399998097,0.84,0.14,0.0,3,0.8400000000000021
119,6.002423999998428,0.84,0.14,0.0,3,0.8400000000000021
120,6.0491183000012825,0.84,0.14,0.0,3,0.8400000000000021
121,6.095939399998315,0.84,0.25,0.0,3,0.8400000000000021
122,6.156303200001275,0.84,0.14,0.0,3,0.8400000000000021
123,6.204508899998473,0.84,0.25,0.0,3,0.8400000000000021
124,6.251610200000869,0.84,0.25,0.0,3,0.8400000000000021
125,6.296653499997774,0.84,0.14,0.0,3,0.8400000000000021
126,6.344651200000953,0.84,0.25,0.0,3,0.8400000000000021
127,6.40802149999945,0.84,0.14,0.0,3,0.8400000000000021
128,6.471880900000542,0.84,0.25,0.0,3,0.8400000000000021
129,6.517158899998321,0.84,0.14,0.0,3,0.8400000000000021
130,6.5630287999993016,0.84,0.25,0.0,3,0.8400000000000021
131,6.625355500000296,0.84,0.25,0.0,3,0.8400000000000021
132,6.673431499999424,0.84,0.25,0.0,3,0.8400000000000021
133,6.720945099998062,0.84,0.14,0.0,3,0.8400000000000021
134,6.768378000000666,0.84,0.25,0.0,3,0.8400000000000021
135,6.829568900000595,0.84,0.14,0.0,3,0.8400000000000021
136,6.877621600000566,0.84,0.14,0.0,3,0.8400000000000021
137,6.938647899998614,0.84,0.25,0.0,3,0.8400000000000021
138,7.0006338999992295,0.84,0.14,0.0,3,0.8400000000000021
139,7.047892099999444,0.84,0.14,0.0,2,0.8400000000000021
140,7.094425700001011,0.84,0.25,0.0,2,0.8400000000000021
141,7.141728499998862,0.84,0.25,0.0,2,0.8400000000000021
142,7.188180299999658,0.84,0.25,0.0,2,0.8400000000000021
143,7.265664800001105,0.84,0.25,0.0,2,0.8400000000000021
144,7.312686199999007,0.84,0.25,0.0,2,0.8400000000000021
145,7.359677699998429,0.84,0.25,0.0,2,0.8400000000000021
146,7.4067713000004,0.84,0.14,0.0,2,0.8400000000000021
147,7.453618600000482,0.84,0.14,0.0,2,0.8400000000000021
148,7.500373300001229,0.84,0.14,0.0,2,0.8400000000000021
149,7.547821299998759,0.84,0.25,0.0,2,0.8400000000000021
150,7.610986299998331,0.84,0.14,0.0,2,0.8400000000000021
151,7.656502400001045,0.84,0.25,0.0,2,0.8400000000000021
152,7.706250200000795,0.84,0.14,0.0,2,0.8400000000000021
153,7.767062300001271,0.84,0.25,0.0,2,0.8400000000000021
154,7.811030599998048,0.84,0.14,0.0,2,0.8400000000000021
155,7.873690899999929,0.84,0.25,0.0,2,0.8400000000000021
156,7.935010699999111,0.84,0.25,0.0,2,0.8400000000000021
157,7.98315680000087,0.84,0.14,0.0,2,0.8400000000000021
158,8.030080100001214,0.84,0.25,0.0,2,0.8400000000000021
159,8.095161199998984,0.84,0.14,0.0,2,0.8400000000000021
160,8.144265399998403,0.84,0.25,0.0,2,0.8400000000000021
161,8.186687000001257,0.84,0.25,0.0,2,0.8400000000000021
162,8.23300019999806,0.84,0.25,0.0,2,0.8400000000000021
163,8.278440499998396,0.84,0.14,0.0,2,0.8400000000000021
164,8.325611699998262,0.84,0.14,0.0,1,0.8400000000000021
165,8.372947799998656,0.84,0.25,0.0,1,0.8400000000000021
166,8.43406429999959,0.84,0.14,0.0,1,0.8400000000000021
167,8.495284299999184,0.84,0.14,0.0,1,0.8400000000000021
168,8.54340890000094,0.84,0.14,0.0,1,0.8400000000000021
169,8.604699799998343,0.84,0.14,0.0,1,0.8400000000000021
170,8.651513900000282,0.84,0.14,0.0,1,0.8400000000000021
171,8.699883400000544,0.84,0.14,0.0,1,0.8400000000000021
172,8.745644099999481,0.84,0.14,0.0,1,0.8400000000000021
173,8.792401899998367,0.84,0.14,0.0,1,0.8400000000000021
174,8.839774000000034,0.84,0.14,0.0,1,0.8400000000000021
175,8.886984199998551,0.84,0.25,0.0,1,0.8400000000000021
176,8.934199200000876,0.84,0.25,0.0,1,0.8400000000000021
177,8.98091039999781,0.84,0.25,0.0,1,0.8400000000000021
178,9.027352000000974,0.84,0.25,0.0,1,0.8400000000000021
179,9.073125300001266,0.84,0.14,0.0,1,0.8400000000000021
180,9.135333099999116,0.84,0.25,0.0,1,0.8400000000000021
181,9.182955399999628,0.84,0.25,0.0,1,0.8400000000000021
182,9.229912499999044,0.84,0.25,0.0,1,0.8400000000000021
183,9.2777070000011,0.84,0.14,0.0,1,0.8400000000000021
184,9.338145599998825,0.84,0.25,0.0,1,0.8400000000000021
185,9.400523199998132,0.84,0.25,0.0,1,0.8400000000000021
186,9.447791399998096,0.84,0.14,0.0,1,0.8400000000000021
187,9.510307000000466,0.84,0.36,0.0,1,0.8400000000000021
188,9.557076699999016,0.84,0.14,0.0,0,0.8400000000000021
189,9.6193237999978,0.84,0.14,0.0,0,0.8400000000000021
190,9.666989400000602,0.84,0.25,0.0,0,0.8400000000000021
191,9.713756599998304,0.84,0.14,0.0,0,0.8400000000000021
192,9.758796599999188,0.84,0.25,0.0,0,0.8400000000000021
193,9.808367099998575,0.84,0.25,0.0,0,0.8400000000000021
194,9.855443000000378,0.84,0.25,0.0,0,0.8400000000000021
195,9.901688599999034,0.84,0.14,0.0,0,0.8400000000000021
196,9.949460499999986,0.84,0.14,0.0,0,0.8400000000000021
197,9.99363860000085,0.84,0.14,0.0,0,0.8400000000000021
198,10.040755599999102,0.84,0.25,0.0,0,0.8400000000000021
199,10.087232900001254,0.84,0.14,0.0,0,0.8400000000000021
200,10.132519700000556,0.84,0.25,0.0,0,0.8400000000000021
201,10.179929699999777,0.84,0.25,0.0,0,0.8400000000000021
202,10.228051199999754,0.84,0.25,0.0,0,0.8400000000000021
203,10.289921200001118,0.84,0.14,0.0,0,0.8400000000000021
204,10.338286999998672,0.84,0.25,0.0,0,0.8400000000000019
205,10.384826499997873,0.84,0.25,0.0,0,0.8400000000000014
206,10.4326665999979,0.84,0.14,0.0,0,0.840000000000001
207,10.498572799999238,0.84,0.14,0.0,0,0.8400000000000003
208,10.574661599999672,0.84,0.14,0.0,0,0.8399999999999996
209,10.62005919999865,0.84,0.25,0.0,0,0.8399999999999992
210,10.679492700000992,0.84,0.14,0.0,0,0.839999999999999
211,10.726806800001214,0.84,0.25,0.0,0,0.8399999999999992
212,10.7883413999989,0.84,0.25,0.0,0,0.8399999999999996
213,10.85051779999776,0.84,0.14,0.0,0,0.8400000000000003
214,10.897163300000102,0.84,0.14,0.0,0,0.8400000000000012
215,10.95953179999924,0.84,0.25,0.0,0,0.8400000000000021
216,11.00657929999943,0.84,0.14,0.0,0,0.840000000000003
217,11.055062200000975,0.84,0.14,0.0,0,0.8400000000000036
218,11.11641679999957,0.84,0.25,0.0,0,0.8400000000000041
219,11.178216299998894,0.84,0.14,0.0,0,0.8400000000000041
220,11.238423899998452,0.84,0.14,0.0,0,0.8400000000000034
221,11.28639959999782,0.84,0.25,0.0,0,0.8400000000000021
222,11.332959200000914,0.84,0.14,0.0,0,0.8400000000000001
223,11.378547500000424,0.84,0.14,0.0,0,0.8399999999999974
224,11.439334599999713,0.84,0.25,0.0,0,0.8399999999999943
225,11.488576499999908,0.84,0.14,0.0,0,0.839999999999991
226,11.535513899998476,0.84,0.14,0.0,0,0.8399999999999876
227,11.583424000000376,0.84,0.25,0.0,0,0.8399999999999848
228,11.631187200000568,0.84,0.14,0.0,0,0.8399999999999825
229,11.678121199998714,0.84,0.25,0.0,0,0.8399999999999814
230,11.726615399998993,0.84,0.14,0.0,0,0.8399999999999821
231,11.772892900000445,0.84,0.25,0.0,0,0.839999999999985
232,11.83441640000092,0.84,0.25,0.0,0,0.8399999999999905
233,11.895358800000396,0.84,0.14,0.0,0,0.8399999999999992
234,11.943285000001197,0.84,0.14,0.0,0,0.8400000000000112
235,11.989843799998198,0.84,0.25,0.0,0,0.8400000000000263
236,12.037560799999484,0.84,0.25,0.0,0,0.8400000000000438
237,12.083253900000273,0.84,0.14,0.0,0,0.8400000000000627
238,12.130374000000302,0.84,0.25,0.0,-1,0.8400000000000813
239,12.177655600000437,0.84,0.25,0.0,-1,0.8400000000000976
240,12.22485179999785,0.84,0.25,0.0,-1,0.8400000000001089
241,12.271526900000026,0.84,0.14,0.0,-1,0.840000000000112
242,12.319471899998462,0.84,0.14,0.0,-1,0.8400000000001033
243,12.387735000000248,0.84,0.14,0.0,-1,0.8400000000000796
244,12.443830100000923,0.84,0.14,0.0,-1,0.8400000000000378
245,12.491685699998923,0.84,0.14,0.0,-1,0.8399999999999765
246,12.538023900000551,0.84,0.25,0.0,-1,0.8399999999998957
247,12.586444199998368,0.84,0.14,0.0,-1,0.8399999999997978
248,12.631261700000325,0.84,0.25,0.0,-1,0.8399999999996877
249,12.69219829999929,0.84,0.25,0.0,-1,0.8399999999995735
250,12.739432099999249,0.84,0.25,0.0,-1,0.839999999999467
251,12.80063599999994,0.84,0.14,0.0,-1,0.839999999999383
252,12.847545199998422,0.84,0.14,0.0,-1,0.8399999999993399
253,12.895462600001338,0.84,0.14,0.0,-1,0.8399999999993575
254,12.940198100000998,0.84,0.25,0.0,-1,0.8399999999994558
255,12.987233500000002,0.84,0.14,0.0,-1,0.8399999999996532
256,13.03446509999776,0.84,0.36,0.0,-1,0.8399999999999628
257,13.081994799998938,0.84,0.25,0.0,-1,0.84000000000039
258,13.130174599999007,0.84,0.25,0.0,-1,0.8400000000009284
259,13.174827999999252,0.84,0.14,0.0,-1,0.8400000000015566
260,13.2227641999998,0.84,0.14,0.0,-1,0.8400000000022341
261,13.270339800001238,0.84,0.14,0.0,-1,0.8400000000029004
262,13.316277300000364,0.84,0.14,0.0,-1,0.8400000000034746
263,13.364555699998164,0.84,0.14,0.0,-1,0.8400000000038563
264,13.411659800000052,0.84,0.14,0.0,-2,0.8400000000039312
265,13.459685999998328,0.84,0.14,0.0,-2,0.8400000000035783
266,13.503101099999183,0.84,0.14,0.0,-2,0.8400000000026826
267,13.580759500000568,0.84,0.25,0.0,-2,0.8400000000011489
268,13.628165800000716,0.84,0.14,0.0,-2,0.8399999999989216
269,13.675403000001095,0.84,0.25,0.0,-2,0.8399999999960048
270,13.721656699999585,0.84,0.25,0.0,-2,0.8399999999924843
271,13.769932100000004,0.84,0.25,0.0,-2,0.8399999999885472
272,13.81582630000048,0.84,0.25,0.0,-2,0.8399999999844969
273,13.863634699999238,0.84,0.25,0.0,-2,0.8399999999807608
274,13.909926500000438,0.84,0.14,0.0,-2,0.8399999999778864
275,13.956639299998642,0.84,0.25,0.0,-2,0.8399999999765213
276,14.004160199998296,0.84,0.25,0.0,-2,0.8399999999773751
277,14.050570100000186,0.84,0.14,0.0,-2,0.8399999999811598
278,14.097833899999388,0.84,0.14,0.0,-2,0.8399999999885088
279,14.144544200000382,0.84,0.14,0.0,-2,0.8399999999998742
280,14.191697800000838,0.84,0.14,0.0,-2,0.8400000000154082
281,14.25286369999958,0.84,0.14,0.0,-2,0.8400000000348364
282,14.299171700000445,0.84,0.25,0.0,-2,0.8400000000573324
283,14.346268199999033,0.84,0.25,0.0,-2,0.8400000000814127
284,14.424817700000858,0.84,0.14,0.0,-2,0.8400000001048686
285,14.47110740000062,0.84,0.25,0.0,-2,0.8400000001247563
286,14.519636900000478,0.84,0.25,0.0,-2,0.840000000137469
287,14.56680090000009,0.84,0.14,0.0,-2,0.8400000001389125
288,14.62963899999886,0.84,0.14,0.0,-2,0.8400000001248009
289,14.676462399998854,0.84,0.25,0.0,-2,0.840000000091083
290,14.724376800000757,0.84,0.25,0.0,-3,0.8400000000344963
291,14.773301999997784,0.84,0.14,0.0,-3,0.8399999999532342
292,14.820473200001288,0.84,0.14,0.0,-3,0.8399999998476859
293,14.867263100000857,0.84,0.14,0.0,-3,0.8399999997211951
294,14.914160000000264,0.84,0.25,0.0,-3,0.8399999995807521
295,14.961450499999046,0.84,0.14,0.0,-3,0.8399999994375176
296,15.00752740000098,0.84,0.14,0.0,-3,0.8399999993070542
297,15.070610599999782,0.84,0.25,0.0,-3,0.8399999992091338
298,15.11640669999906,0.84,0.25,0.0,-3,0.8399999991669873
299,15.164497699999629,0.84,0.25,0.0,-3,0.8399999992058791
300,15.209815800000795,0.84,0.14,0.0,-3,0.8399999993509248
301,15.25757639999938,0.84,0.25,0.0,-3,0.8399999996241296
302,15.304449600000224,0.84,0.14,0.0,-3,0.8400000000407037
303,15.35052639999776,0.84,0.25,0.0,-3,0.8400000006048178
304,15.39845620000051,0.84,0.25,0.0,-3,0.8400000013050857
305,15.444282100001146,0.84,0.25,0.0,-3,0.8400000021101963
306,15.490599900000234,0.84,0.14,0.0,-3,0.8400000029652568
307,15.538059300000896,0.84,0.14,0.0,-3,0.8400000037895285
308,15.584069000000454,0.84,0.14,0.0,-3,0.8400000044763285
309,15.631176999999298,0.84,0.25,0.0,-3,0.8400000048958975
310,15.693558799997843,0.84,0.25,0.0,-3,0.8400000049019902
311,15.754366199998913,0.84,0.25,0.0,-3,0.8400000043427804
312,15.80020069999955,0.84,0.14,0.0,-3,0.8400000030763994
313,15.84674929999892,0.84,0.14,0.0,-3,0.8400000009910005
314,15.893855499998608,0.84,0.25,0.0,-3,0.8399999980286799
315,15.941084099998989,0.84,0.14,0.0,-3,0.8399999942118967
316,16.002861400000256,0.84,0.14,0.0,-3,0.8399999896702446
317,16.050625100000616,0.84,0.14,0.0,-4,0.8399999846646031
318,16.097632400000293,0.84,0.25,0.0,-4,0.8399999796049191
319,16.14340710000033,0.84,0.25,0.0,-4,0.8399999750572267
320,16.19006459999946,0.84,0.25,0.0,-4,0.8399999717351625
321,16.236843899998348,0.84,0.14,0.0,-4,0.8399999704712917
322,16.282003799999075,0.84,0.25,0.0,-4,0.8399999721641842
323,16.328488299997844,0.84,0.25,0.0,-4,0.8399999776985065
324,16.3756558999994,0.84,0.14,0.0,-4,0.8399999878375177
325,16.42182049999974,0.84,0.25,0.0,-4,0.8400000030903298
326,16.469231799997942,0.84,0.14,0.0,-4,0.8400000235600784
327,16.51516300000003,0.84,0.25,0.0,-4,0.8400000487836017
328,16.561180100001366,0.84,0.14,0.0,-4,0.8400000775780885
329,16.609023199998774,0.84,0.25,0.0,-4,0.8400001079149952
330,16.656055299998116,0.84,0.03,0.0,-4,0.8400001368457963
331,16.704064699999435,0.84,0.25,0.0,-4,0.8400001605071077
332,16.75330209999811,0.84,0.14,0.0,-4,0.8400001742336012
333,16.79916830000002,0.84,0.14,0.0,-4,0.8400001728050335
334,16.86130680000133,0.84,0.14,0.0,-4,0.8400001508478061
335,16.909820099997887,0.84,0.14,0.0,-4,0.8400001034010456
336,16.97137920000023,0.84,0.14,0.0,-4,0.8400000266417962
337,17.019296099999337,0.84,0.14,0.0,-4,0.8399999187435183
338,17.065552100000787,0.84,0.14,0.0,-4,0.8399997808172239
339,17.113785599998664,0.84,0.25,0.0,-4,0.8399996178564892
340,17.160277300001326,0.84,0.14,0.0,-4,0.8399994395783534
341,17.206509600000572,0.84,0.25,0.0,-4,0.8399992610246965
342,17.253305599999294,0.84,0.14,0.0,-4,0.8399991027669294
343,17.301534899997932,0.84,0.25,0.0,-4,0.8399989905453138
344,17.346691899998405,0.84,0.14,0.0,-5,0.839998954178033
345,17.393296599999303,0.84,0.25,0.0,-5,0.8399990255994212
346,17.455379999999423,0.84,0.25,0.0,-5,0.839999235936191
