,time,angle,pressure,set_point,motor_speed,Filtered_angle
0,0.0474603000002389,-0.3,3.3,0.0,23,-0.2999999947185278
1,0.0941474999999627,-0.3,3.52,0.0,23,-0.3000000728655705
2,0.1403787999988708,-0.3,2.86,0.0,23,-0.29999985002733276
3,0.201838900000439,-0.3,3.52,0.0,23,-0.3000002361591285
4,0.2492024999992281,-0.3,3.41,0.0,23,-0.299999669336507
5,0.2968108999994001,-0.3,2.65,0.0,23,-0.300000432372873
6,0.3431979999986652,-0.3,3.52,0.0,23,-0.29999946020695756
7,0.4053523000002315,-0.3,3.41,0.0,23,-0.30000065102363305
8,0.452951999999641,-0.3,2.43,0.0,23,-0.29999923626002756
9,0.4994920999997703,-0.3,3.52,0.0,23,-0.30000087518317176
10,0.5468891999989864,-0.3,3.41,0.0,23,-0.29999901783986826
11,0.5941810000003898,-0.3,2.75,0.0,23,-0.3000010810551468
12,0.6409529999982624,-0.3,3.41,0.0,23,-0.29999883214523104
13,0.6874143999993976,-0.3,3.41,0.0,23,-0.3000012381875138
14,0.7344410000005155,-0.3,2.65,0.0,23,-0.2999987126201301
15,0.7823351000006369,-0.3,3.52,0.0,23,-0.30000131052987977
16,0.8444980999993277,-0.3,3.3,0.0,23,-0.29999869740068863
17,0.9058235000011337,-0.3,2.54,0.0,23,-0.3000012585251094
18,0.9528834999982791,-0.3,3.41,0.0,23,-0.299998826649575
19,1.001027599999361,-0.3,3.41,0.0,23,-0.3000010423750422
20,1.0480611999992109,-0.3,2.32,0.0,23,-0.29999913867552164
21,1.093246000000363,-0.3,3.52,0.0,23,-0.30000062653640625
22,1.1718761000011,-0.3,2.97,0.0,23,-0.2999996648376383
23,1.2178172999992969,-0.3,3.41,0.0,23,-0.2999999853819382
24,1.2642833999998402,-0.3,3.41,0.0,23,-0.3000004233741309
25,1.3115355000009004,-0.3,3.19,0.0,23,-0.2999991098035433
26,1.3577425000003132,-0.3,2.97,0.0,23,-0.30000141247036904
27,1.4047716999994009,-0.3,3.52,0.0,23,-0.2999980143436123
28,1.4531677000013588,-0.3,3.3,0.0,23,-0.3000026030848584
29,1.4989123999985168,-0.3,2.86,0.0,23,-0.2999967442273541
30,1.5461601999995764,-0.3,3.52,0.0,23,-0.3000039322705228
31,1.5930135999988124,-0.3,3.41,0.0,23,-0.29999538144945614
32,1.640377299998363,-0.3,2.43,0.0,23,-0.30000529794319775
33,1.687589000001026,-0.3,3.41,0.0,23,-0.29999404886553116
34,1.7345356000005268,-0.3,3.41,0.0,24,-0.30000655623305184
35,1.780089699997916,-0.3,2.32,0.0,24,-0.2999929110821645
36,1.827853399998276,-0.3,3.52,0.0,24,-0.3000075226753368
37,1.874900399998296,-0.3,3.3,0.0,24,-0.29999217086398533
38,1.9371167999997847,-0.3,3.08,0.0,24,-0.30000797851725947
39,1.981692999997904,-0.3,3.63,0.0,24,-0.299992059820663
40,2.0299425999983214,-0.3,2.97,0.0,24,-0.3000076832986053
41,2.077518499998405,-0.3,3.63,0.0,24,-0.2999928223400675
42,2.124609700000292,-0.3,3.63,0.0,24,-0.30000639456737954
43,2.1718885000009323,-0.3,2.65,0.0,24,-0.2999946921310972
44,2.219250499998452,-0.3,3.74,0.0,24,-0.3000038950870584
45,2.265963300000294,-0.3,3.52,0.0,24,-0.29999786135649265
46,2.313908000000083,-0.3,2.54,0.0,24,-0.3000000271605381
47,2.360684899998887,-0.3,3.74,0.0,24,-0.3000024431820737
48,2.40738539999802,-0.3,3.63,0.0,24,-0.2999947327382908
49,2.454780000000028,-0.3,2.43,0.0,24,-0.3000084296312039
50,2.501500099999248,-0.3,3.74,0.0,24,-0.29998809682169103
51,2.548897799999395,-0.3,3.52,0.0,24,-0.3000156478690834
52,2.596013300000777,-0.3,2.54,0.0,24,-0.2999803903769983
53,2.643528399999923,-0.3,3.74,0.0,24,-0.3000237193721419
54,2.689844799999264,-0.3,3.63,0.0,24,-0.299972107639212
55,2.737841300000582,-0.3,2.54,0.0,24,-0.300032027744906
56,2.798809200001415,-0.3,3.74,0.0,24,-0.2999639914469677
57,2.8475908000000345,-0.3,3.41,0.0,24,-0.3000397020708847
58,2.8935700000001816,-0.3,3.41,0.0,24,-0.2999570392887402
59,2.941002899999148,-0.3,3.74,0.0,24,-0.3000456234282436
60,2.987542300001224,-0.3,3.41,0.0,24,-0.29995248226976823
61,3.034625500000402,-0.3,3.41,0.0,24,-0.30004846233948457
62,3.082782000001316,-0.3,3.74,0.0,24,-0.2999517294632451
63,3.1288319999985106,-0.3,3.3,0.0,24,-0.30004675421773797
64,3.174496700001328,-0.3,3.41,0.0,24,-0.29995627132640656
65,3.221306799998274,-0.3,3.84,0.0,24,-0.3000390180904877
66,3.2688330999990285,-0.3,3.41,0.0,24,-0.2999675382569921
67,3.3313573000014003,-0.3,3.74,0.0,24,-0.3000239208334424
68,3.379089099998964,-0.3,3.63,0.0,24,-0.2999867140965231
69,3.425296699999308,-0.3,2.43,0.0,24,-0.30000048471702845
70,3.471237599998858,-0.3,3.74,0.0,24,-0.30001450951689845
71,3.533688399998937,-0.3,3.63,0.0,24,-0.29996833025612046
72,3.5811160000012023,-0.3,2.43,0.0,24,-0.30005090668122547
73,3.627925000000687,-0.3,3.63,0.0,24,-0.29992793931966555
74,3.6747957000006863,-0.3,3.52,0.0,24,-0.3000948940941779
75,3.722667599999113,-0.3,2.86,0.0,24,-0.29988091555935636
76,3.783673199999612,-0.3,3.74,0.0,24,-0.30014421868072294
77,3.831690799997887,-0.3,3.08,0.0,24,-0.2998302110448895
78,3.8782358999997086,-0.3,3.84,0.0,24,-0.30019519014238927
79,3.940592599999946,-0.3,3.74,0.0,24,-0.2997802803847448
80,3.9870319000001473,-0.3,2.54,0.0,24,-0.30024257957676115
81,4.033476599997812,-0.3,3.74,0.0,24,-0.29973711764511257
82,4.0801128999992216,-0.3,3.63,0.0,24,-0.30027965901940656
83,4.141826799997944,-0.3,2.43,0.0,24,-0.2997081283413906
84,4.189666599999328,-0.3,3.74,0.0,24,-0.30029842961364617
85,4.235602100001415,-0.3,3.63,0.0,24,-0.2997017900861594
86,4.2829491999982565,-0.3,3.63,0.0,24,-0.3002900820863269
87,4.3301128999992216,-0.3,3.74,0.0,24,-0.2997270625729893
88,4.378009600000951,-0.3,3.52,0.0,24,-0.3002457227166986
89,4.425854400000389,-0.3,3.63,0.0,24,-0.29979252175376203
90,4.48628330000065,-0.3,3.84,0.0,24,-0.30015737987801483
91,4.533838899998955,-0.3,3.08,0.0,24,-0.29990521528090774
92,4.594408799999656,-0.3,3.84,0.0,24,-0.3000192798150776
93,4.642204200001288,-0.3,3.52,0.0,24,-0.3000692669043916
94,4.689376099999208,-0.3,2.97,0.0,24,-0.2998293456149136
95,4.7375518000008014,-0.3,3.74,0.0,24,-0.3002842960622172
96,4.798461599999428,-0.3,3.52,0.0,24,-0.29959083132672526
97,4.846239599999535,-0.3,3.74,0.0,24,-0.3005437638047891
98,4.893876699999964,-0.3,3.74,0.0,24,-0.29931395611048706
99,4.954631000000518,-0.3,3.52,0.0,24,-0.30083340453581464
100,5.000460399998701,-0.3,3.74,0.0,24,-0.29901735478708114
101,5.049343200000294,-0.3,3.74,0.0,24,-0.3011299504260613
102,5.094725099999778,-0.3,2.97,0.0,24,-0.29872911641387256
103,5.143040399998426,-0.3,3.74,0.0,24,-0.30140039579995404
104,5.1907934000009845,-0.3,3.52,0.0,24,-0.29848714822900047
105,5.250713099998393,-0.3,2.97,0.0,25,-0.301602074896241
106,5.311896799998067,-0.3,3.74,0.0,25,-0.29833858653516954
107,5.359540999997989,-0.3,3.08,0.0,25,-0.301683829598525
108,5.421227200000431,-0.3,3.95,0.0,25,-0.29833798778477805
109,5.468542899998283,-0.3,3.74,0.0,25,-0.30158851483808835
110,5.51677650000056,-0.3,3.95,0.0,25,-0.2985440814917958
111,5.561509899998782,-0.3,3.95,0.0,25,-0.30125701938443405
112,5.6096443999995245,-0.3,3.3,0.0,25,-0.299014960171339
113,5.6557298000007,-0.3,4.06,0.0,25,-0.3006338608782282
114,5.718597799997951,-0.3,3.84,0.0,25,-0.2998017269960026
115,5.764747500001249,-0.3,2.75,0.0,25,-0.2996742409485542
116,5.826952499999607,-0.3,3.95,0.0,25,-0.3009408227549908
117,5.874285900001269,-0.3,3.19,0.0,25,-0.2983522177465264
118,5.9221280999991,-0.3,3.95,0.0,25,-0.3024455088318604
119,5.968673399998806,-0.3,3.84,0.0,25,-0.29666937327759846
120,6.014398200000869,-0.3,3.08,0.0,25,-0.30429728500291187
121,6.061148799999501,-0.3,4.06,0.0,25,-0.29466303232278934
122,6.107286599999497,-0.3,3.74,0.0,25,-0.30643835533171115
123,6.154058500000247,-0.3,2.86,0.0,25,-0.292412747027993
124,6.214344799998798,-0.3,4.06,0.0,25,-0.3087665997220964
125,6.262350199998764,-0.3,3.41,0.0,25,-0.2900434230252372
126,6.324247000000469,-0.3,4.06,0.0,25,-0.3111348322717674
127,6.372539899999538,-0.3,3.84,0.0,25,-0.2877231633755233
128,6.433398299999681,-0.3,2.75,0.0,25,-0.31335639311868957
129,6.481271699998615,-0.3,3.95,0.0,25,-0.28565368555522863
130,6.527665599998727,-0.3,3.41,0.0,25,-0.31521928642432917
131,6.574380099998962,-0.3,4.06,0.0,25,-0.28405106635583144
132,6.620857599998999,-0.3,4.06,0.0,25,-0.31651110194418286
133,6.668681099999958,-0.3,3.52,0.0,25,-0.28311462926146047
134,6.728958700001385,-0.3,4.06,0.0,25,-0.31705680599576713
135,6.790672799997992,-1.03,3.84,0.0,25,-1.0129822112718654
136,6.83846210000047,-1.11,4.17,0.0,33,-1.1267692496422257
137,6.886179400000401,-1.11,3.52,0.0,33,-1.0936794788401278
138,6.932745699999941,-1.11,4.72,0.0,33,-1.1256879012790675
139,6.980912499999249,-1.11,5.15,0.0,33,-1.0951072070457077
140,7.027873099999852,-1.11,4.39,0.0,33,-1.1239600111851398
141,7.076015300001018,-1.11,5.37,0.0,33,-1.0970836541394848
142,7.12311469999986,-1.11,4.39,0.0,33,-1.1217893495344327
143,7.169462300000305,-1.11,5.37,0.0,33,-1.0993936637506465
144,7.216540699999314,-1.11,4.82,0.0,33,-1.119393575845958
145,7.264152600000671,-1.11,5.48,0.0,33,-1.1018243330712625
146,7.310835299998871,-1.11,4.72,0.0,33,-1.11697507079346
147,7.358273300000292,-1.11,5.15,0.0,33,-1.1041882118484476
148,7.406894600000669,-1.11,4.39,0.0,34,-1.1147031603841733
149,7.4542274000014,-1.11,5.04,0.0,34,-1.1063362227056648
150,7.499224299997877,-1.11,4.72,0.0,34,-1.1127054738628877
151,7.5462087000014435,-1.11,4.61,0.0,34,-1.1081626006857432
152,7.592640399998345,-1.11,5.26,0.0,34,-1.1110661428197273
153,7.6554950999998255,-1.11,4.17,0.0,34,-1.109604098631329
154,7.718498800000816,-1.11,4.39,0.0,34,-1.1098286766812921
155,7.778015899999445,-1.11,4.82,0.0,34,-1.1106355105182986
156,7.83988379999937,-1.11,5.15,0.0,34,-1.1090016009614367
157,7.887182800001028,-1.11,5.15,0.0,34,-1.1112632671923175
158,7.934142599999177,-1.11,4.28,0.0,34,-1.1085652787174163
159,7.982058499997947,-1.11,5.04,0.0,34,-1.1115184981582849
160,8.029974799999763,-1.11,4.72,0.0,34,-1.1084787140800199
161,8.076288899999781,-1.11,4.82,0.0,34,-1.111450565448132
162,8.124327900000935,-1.11,5.15,0.0,34,-1.1086855258961545
163,8.170625899998413,-1.11,3.84,0.0,34,-1.1111216917294249
164,8.216923799998767,-1.11,5.04,0.0,34,-1.1091186520343148
165,8.263985800000228,-1.11,4.72,0.0,34,-1.1106029489150284
166,8.311908600000606,-1.11,4.17,0.0,35,-1.1097036796777184
167,8.359057300000131,-1.11,5.15,0.0,35,-1.1099715637263161
168,8.406141799998295,-1.11,4.93,0.0,35,-1.110360978539627
169,8.452184800000396,-1.11,4.5,0.0,35,-1.1093092459528782
170,8.498633700000937,-1.11,5.15,0.0,35,-1.1110070314924256
171,8.5447451,-1.11,5.26,0.0,35,-1.1087010626258027
172,8.59249490000002,-1.11,4.61,0.0,35,-1.1115555030221516
173,8.653600999998162,-1.11,5.37,0.0,35,-1.1082342733371644
174,8.69979500000045,-1.11,5.48,0.0,35,-1.1119186548370403
175,8.747554599998693,-1.11,4.17,0.0,35,-1.1079965130544593
176,8.809647900001437,-1.11,4.82,0.0,35,-1.1120097059957132
177,8.857111599998461,-1.11,5.26,0.0,35,-1.108072762247998
178,8.904617199998029,-1.11,4.28,0.0,35,-1.1117466394608932
179,8.965676699997857,-1.11,4.5,0.0,35,-1.1085406818693913
180,9.013737299999775,-1.11,5.15,0.0,35,-1.1110577770042205
181,9.060977000001005,-1.11,5.37,0.0,35,-1.109464112617751
182,9.108565099999396,-1.11,4.17,0.0,35,-1.1098891813403053
183,9.154808799998136,-1.11,5.26,0.0,35,-1.1108848408341196
184,9.202183199999126,-1.11,4.82,0.0,35,-1.108213603527068
185,9.249884799999563,-1.11,4.28,0.0,35,-1.1128131094897982
186,9.311090700000932,-1.11,5.26,0.0,36,-1.106040285753144
187,9.358545999999478,-1.11,5.37,0.0,36,-1.1152177880091017
188,9.406649699998525,-1.11,3.84,0.0,36,-1.1034244724596662
189,9.4542861000009,-1.11,5.04,0.0,36,-1.1180175871820346
190,9.502067999997962,-1.11,5.37,0.0,36,-1.1004750025865586
191,9.548571700001048,-1.11,3.95,0.0,36,-1.121075184366658
192,9.594777399997838,-1.11,5.15,0.0,36,-1.0973578879880188
193,9.656965999998649,-1.11,5.26,0.0,36,-1.1241965696817378
194,9.7039635000001,-1.11,5.04,0.0,36,-1.0942933717875838
195,9.751884400000565,-1.11,4.61,0.0,36,-1.1271382882037528
196,9.81288080000013,-1.11,5.37,0.0,36,-1.0915436563266843
197,9.860980800000108,-1.11,5.37,0.0,36,-1.1296254836868962
198,9.907751099999588,-1.11,4.06,0.0,36,-1.0893883466603942
199,9.955762699999468,-1.11,5.04,0.0,36,-1.1313836937343722
200,10.002043799999228,-1.11,5.37,0.0,36,-1.0880847216451195
201,10.049785899998824,-1.11,4.28,0.0,36,-1.1321871604811853
202,10.09727170000042,-1.97,5.04,0.0,36,-1.9478104612679117
203,10.142778699999326,-1.97,5.37,0.0,36,-1.9919237311518294
204,10.190256300000328,-1.97,4.17,0.0,45,-1.9485978599488285
205,10.268814899998688,-1.97,5.48,0.0,45,-1.9906465076539757
206,10.330225099998644,-1.97,5.26,0.0,45,-1.9503145195389513
207,10.392946199997825,-1.97,5.26,0.0,46,-1.9885522920939602
208,10.440751099999034,-1.97,6.57,0.0,46,-1.95271724218946
209,10.48730810000052,-1.97,6.02,0.0,46,-1.9859135664496725
210,10.532369699998526,-1.97,5.04,0.0,46,-1.9555191470249986
211,10.579207899998435,-1.97,5.48,0.0,46,-1.983019032724311
212,10.625460499999464,-1.97,5.26,0.0,46,-1.9584401230498587
213,10.671224400000938,-1.97,5.59,0.0,46,-1.9801318082522086
214,10.718241999999009,-1.97,6.02,0.0,46,-1.9612406059700147
215,10.764398299997993,-1.97,6.35,0.0,46,-1.977463016086703
216,10.812343900000997,-1.97,6.13,0.0,46,-1.9637413050546553
217,10.85831010000038,-1.97,6.57,0.0,46,-1.975158048236309
218,10.90541569999914,-1.97,6.57,0.0,46,-1.9658316363765362
219,10.952827599998272,-1.97,6.68,0.0,47,-1.973292768085458
220,11.03022989999954,-1.97,5.48,0.0,47,-1.967469523103245
221,11.07740399999966,-1.97,5.7,0.0,47,-1.9718771072932162
222,11.124493499999517,-1.97,5.26,0.0,47,-1.9686749565022927
223,11.170243799999298,-1.97,5.59,0.0,47,-1.9708638414635151
224,11.218068899997888,-1.97,5.81,0.0,47,-1.9695193366868742
225,11.26544389999981,-1.97,6.02,0.0,47,-1.9701607329584343
226,11.311761000000844,-1.97,5.59,0.0,47,-1.9701121942569175
227,11.359770099999878,-1.97,5.91,0.0,47,-1.9696446461121824
228,11.420399999999065,-1.97,6.13,0.0,47,-1.970586491740155
229,11.481538299998649,-1.97,5.26,0.0,48,-1.9691766154084949
230,11.529493400001227,-1.97,6.79,0.0,48,-1.9710833661791647
231,11.575649599999451,-1.97,6.79,0.0,48,-1.9686171378278057
232,11.622619999998278,-1.97,6.68,0.0,48,-1.9717369379266372
233,11.669102899999416,-1.97,6.57,0.0,48,-1.9678411368361088
234,11.731335299999046,-1.97,6.24,0.0,48,-1.9726596982977116
235,11.77751459999854,-1.97,6.57,0.0,48,-1.9667520920550403
236,11.824251699999875,-1.97,6.68,0.0,48,-1.9739290081619878
237,11.884626899998691,-1.97,6.79,0.0,48,-1.9652947448808669
238,11.932053000000453,-1.97,5.81,0.0,48,-1.9755753842211026
239,11.97630990000107,-1.97,5.91,0.0,48,-1.9634655899432762
240,12.023319699997955,-1.97,6.13,0.0,49,-1.97757349896858
241,12.070375799998146,-1.97,5.59,0.0,49,-1.961320072581384
242,12.118114199998672,-1.97,5.7,0.0,49,-1.9798371406341304
243,12.179333600000971,-1.97,5.7,0.0,49,-1.9589750728078648
244,12.2265593000011,-1.97,6.79,0.0,49,-1.9822197261807961
245,12.27370399999927,-1.97,6.9,0.0,49,-1.9566049156922656
246,12.320437300000776,-1.97,6.79,0.0,49,-1.9845222807521257
247,12.369040300000052,-1.97,6.68,0.0,49,-1.9544288623683048
248,12.41469750000033,-1.97,6.79,0.0,49,-1.9865110336346914
249,12.462467699999252,-1.97,6.9,0.0,49,-1.9526878623815784
250,12.509617899999284,-1.97,6.9,0.0,49,-1.9879468777800833
251,12.557523299998138,-1.97,6.35,0.0,50,-1.9516083396418227
252,12.60553820000132,-1.97,6.24,0.0,50,-1.9886288497384557
253,12.667848900000536,-2.72,5.7,0.0,50,-2.7013511588696826
254,12.715534099999786,-2.73,6.46,0.0,50,-2.748451521863035
255,12.76237889999902,-2.73,6.79,0.0,58,-2.7119537568111842
256,12.808408799999595,-2.73,6.35,0.0,58,-2.747450314776954
257,12.856607499998065,-2.73,6.02,0.0,58,-2.7133130898792697
258,12.903171099998872,-2.73,6.46,0.0,58,-2.745783077899379
259,12.948656100001244,-2.73,7.55,0.0,58,-2.7152319807905974
260,13.01093050000054,-2.73,6.46,0.0,58,-2.743671616982307
261,13.058250099998986,-2.73,7.66,0.0,58,-2.717476795828231
262,13.10570209999787,-2.73,6.57,0.0,58,-2.7413505556100923
263,13.152614300001003,-2.73,6.24,0.0,58,-2.7198209128089
264,13.198242300000857,-2.73,6.9,0.0,59,-2.7390312452283787
265,13.245338000000627,-2.73,7.55,0.0,59,-2.7220739315570968
266,13.293221600000834,-2.73,6.24,0.0,59,-2.7368789050185707
267,13.340304400000605,-2.73,6.9,0.0,59,-2.7240987325148738
268,13.385631500001182,-2.73,7.55,0.0,59,-2.7350008087950846
269,13.447764299999108,-2.73,6.79,0.0,59,-2.725818596199818
270,13.5085794000006,-2.73,7.22,0.0,59,-2.7334433213465075
271,13.555570500000613,-2.73,7.44,0.0,59,-2.7272165266615507
272,13.602383099998406,-2.73,7.11,0.0,60,-2.73219572831332
273,13.650725200001034,-2.73,6.46,0.0,60,-2.72832872173273
274,13.697655799998756,-2.73,5.81,0.0,60,-2.7311990486283033
275,13.74474790000022,-2.73,6.9,0.0,60,-2.729233857661568
276,13.792590900000503,-2.73,6.13,0.0,60,-2.730358309943822
277,13.838630499998544,-2.73,6.46,0.0,60,-2.7300395616346953
278,13.885695799999668,-2.73,7.33,0.0,60,-2.7295570516042456
279,13.93192469999849,-2.73,5.91,0.0,61,-2.7308671829896496
280,13.979684900001304,-2.73,7.44,0.0,61,-2.7286730508852886
281,14.040781499999866,-2.73,6.9,0.0,61,-2.7318357828861766
282,14.08794829999897,-2.73,7.22,0.0,61,-2.727594412204407
283,14.134671600000727,-2.73,6.46,0.0,61,-2.7330461704060807
284,14.195966700001009,-2.73,6.46,0.0,61,-2.726235195343501
285,14.2446302999997,-2.73,5.91,0.0,61,-2.734565833550951
286,14.290825699998097,-2.73,7.55,0.0,61,-2.724549681942235
287,14.336956099999952,-2.73,6.79,0.0,61,-2.736415744195775
288,14.384124500000324,-2.73,7.33,0.0,62,-2.722544199498411
289,14.430496299999504,-2.73,7.0,0.0,62,-2.7385602393001696
290,14.492770500000915,-2.73,6.13,0.0,62,-2.7202851636110146
291,14.538840500001244,-2.73,6.35,0.0,62,-2.740901464836356
292,14.586535999998889,-2.73,5.81,0.0,62,-2.7179017004712156
293,14.634016899999551,-2.73,7.44,0.0,62,-2.743280169820704
294,14.681417699997835,-2.73,5.91,0.0,62,-2.7155809219144884
295,14.728095399997985,-2.73,7.44,0.0,62,-2.745484902084229
296,14.775011400000947,-2.73,6.79,0.0,63,-2.7135537011911044
297,14.82107619999806,-2.73,5.91,0.0,63,-2.747271826780682
298,14.868519899999228,-2.73,6.79,0.0,63,-2.712068697342016
299,14.914816199998311,-2.73,6.02,0.0,63,-2.7483974064210464
300,14.96199649999835,-2.73,7.33,0.0,63,-2.711352452651535
301,15.023857899999712,-2.73,6.79,0.0,63,-2.748666000508818
302,15.071807299998907,-3.5,6.9,0.0,63,-3.481553862372066
303,15.117418400001045,-3.5,6.13,0.0,71,-3.5179920240562965
304,15.164333100001386,-3.5,7.22,0.0,71,-3.4826815328371636
305,15.210745299998962,-3.5,7.55,0.0,72,-3.5164495128578093
306,15.271916599998804,-3.5,6.46,0.0,72,-3.484583701613566
307,15.319545199999991,-3.5,8.09,0.0,72,-3.514254983324339
308,15.380201699997995,-3.5,6.79,0.0,72,-3.486995071114642
309,15.42574279999826,-3.5,7.0,0.0,72,-3.511707110235294
310,15.473776599999836,-3.5,7.33,0.0,72,-3.489597255405673
311,15.521825699997862,-3.5,7.77,0.0,73,-3.509132116580113
312,15.569877599999018,-3.5,7.22,0.0,73,-3.4920664184794346
313,15.6177588999999,-3.5,7.44,0.0,73,-3.506842727355578
314,15.664819999998144,-3.5,7.55,0.0,73,-3.4941083237614627
315,15.711847099999432,-3.5,7.44,0.0,73,-3.5051085080136675
316,15.77316630000132,-3.5,8.53,0.0,73,-3.495483210656213
317,15.821326900000711,-3.5,7.99,0.0,73,-3.5041351943433807
318,15.868249700000888,-3.5,7.22,0.0,74,-3.4960227949260405
319,15.914872400000604,-3.5,7.44,0.0,74,-3.5040508831147226
320,15.961699399998906,-3.5,8.2,0.0,74,-3.495641293441804
321,16.023656699999265,-3.5,7.44,0.0,74,-3.5048974701195403
322,16.070715900001233,-3.5,8.97,0.0,75,-3.4943417504919343
323,16.130684799998562,-3.5,7.77,0.0,75,-3.506626434705769
324,16.178966200001014,-3.5,8.97,0.0,75,-3.4922181597549837
325,16.22761729999911,-3.5,8.09,0.0,75,-3.50909890388924
326,16.27425260000018,-3.5,9.4,0.0,75,-3.4894530117883527
327,16.321202999999514,-3.5,9.18,0.0,75,-3.5120908023530886
328,16.368393299999298,-3.5,8.31,0.0,75,-3.4863090363586258
329,16.415207400001236,-3.5,9.51,0.0,76,-3.515304720694194
330,16.461310899998352,-3.5,8.31,0.0,76,-3.4831131389624717
331,16.509199299998727,-3.5,8.53,0.0,76,-3.518390827090463
332,16.57019180000134,-3.5,9.73,0.0,76,-3.480229935453354
333,16.63247549999869,-3.5,8.75,0.0,76,-3.520979626687048
334,16.69446489999973,-3.5,9.08,0.0,76,-3.478021943029376
