,time,angle,pressure,set_point,motor_speed,Filtered_angle
0,0.0407101000000693,-0.28,13.22,0.0,9,-0.2800000000000006
1,0.0898945999997522,-0.28,8.31,0.0,9,-0.28000000000000064
2,0.1338544000009278,-0.28,6.68,0.0,9,-0.2800000000000007
3,0.1808096000004297,-0.28,5.59,0.0,9,-0.2800000000000007
4,0.2286923999999999,-0.28,4.72,0.0,9,-0.28000000000000064
5,0.2910315000008268,-0.28,3.95,0.0,9,-0.2800000000000006
6,0.3395722999994177,-0.28,3.52,0.0,9,-0.2800000000000006
7,0.3839592999993328,-0.28,3.08,0.0,9,-0.28000000000000064
8,0.4713532000005216,-0.28,2.65,0.0,9,-0.2800000000000007
9,0.5181683000009798,-0.28,2.32,0.0,9,-0.2800000000000007
10,0.5801931000005425,-0.28,1.99,0.0,9,-0.28000000000000064
11,0.6414705999995931,-0.28,1.77,0.0,9,-0.2800000000000006
12,0.6883897000006982,-0.28,1.55,0.0,9,-0.2800000000000006
13,0.7352050999998028,-0.28,1.23,0.0,9,-0.28000000000000064
14,0.7822852000008425,-0.28,1.01,0.0,9,-0.2800000000000007
15,0.8274808000005578,-0.28,0.9,0.0,9,-0.2800000000000007
16,0.8748393999994732,-0.28,0.68,0.0,9,-0.28000000000000064
17,0.9220045000001846,-0.28,0.46,0.0,9,-0.2800000000000006
18,0.9696755999993912,-0.28,0.36,0.0,9,-0.2800000000000006
19,1.0315819999996163,-0.28,0.25,0.0,9,-0.28000000000000064
20,1.094238199999381,-0.28,0.14,0.0,9,-0.2800000000000007
21,1.140878899999734,-0.28,0.25,0.0,9,-0.2800000000000007
22,1.1883928000006565,-0.28,0.25,0.0,9,-0.28000000000000064
23,1.2657455999997185,-0.28,0.14,0.0,9,-0.2800000000000006
24,1.3134236999994755,-0.28,0.14,0.0,9,-0.2800000000000006
25,1.3592938000001595,-0.28,0.14,0.0,9,-0.28000000000000064
26,1.4077668999998425,-0.28,0.14,0.0,9,-0.2800000000000007
27,1.4681531000005634,-0.28,0.14,0.0,9,-0.2800000000000007
28,1.5144187999994756,-0.28,0.14,0.0,9,-0.28000000000000064
29,1.5614385999997469,-0.28,0.25,0.0,9,-0.2800000000000006
30,1.608280599999489,-0.28,0.14,0.0,9,-0.2800000000000006
31,1.657462499999383,-0.28,0.14,0.0,9,-0.28000000000000064
32,1.704148400000122,-0.28,0.14,0.0,9,-0.2800000000000007
33,1.7669518000002429,-0.28,0.14,0.0,9,-0.2800000000000007
34,1.8289908000006108,-0.28,0.14,0.0,9,-0.28000000000000064
35,1.876654800000324,-0.28,0.14,0.0,9,-0.2800000000000006
36,1.9215605999997931,-0.28,0.14,0.0,9,-0.2800000000000006
37,1.9703552999999372,-0.28,0.14,0.0,9,-0.28000000000000064
38,2.0169347999999445,-0.28,0.25,0.0,9,-0.2800000000000007
39,2.062856399999873,-0.28,0.14,0.0,9,-0.2800000000000007
40,2.1100439000001643,-0.28,0.14,0.0,9,-0.28000000000000064
41,2.175313499999902,-0.28,0.03,0.0,9,-0.2800000000000006
42,2.221190599999318,-0.28,0.25,0.0,9,-0.2800000000000006
43,2.2676054000003205,-0.28,0.14,0.0,9,-0.28000000000000064
44,2.3143531999994598,-0.28,0.14,0.0,9,-0.2800000000000007
45,2.361107400000037,-0.28,0.14,0.0,9,-0.2800000000000007
46,2.422446700000364,-0.28,0.14,0.0,9,-0.28000000000000064
47,2.485201400000733,-0.28,0.14,0.0,9,-0.2800000000000006
48,2.564346499999374,-0.28,0.25,0.0,9,-0.2800000000000006
49,2.6123310000002675,-0.28,0.14,0.0,9,-0.28000000000000064
50,2.658679899999697,-0.28,0.03,0.0,9,-0.2800000000000007
51,2.720771300000706,-0.28,0.14,0.0,9,-0.2800000000000007
52,2.767957000000024,-0.28,0.14,0.0,9,-0.28000000000000064
53,2.81692750000002,-0.28,0.14,0.0,9,-0.2800000000000006
54,2.863688200000979,-0.28,0.14,0.0,9,-0.2800000000000006
55,2.9106651000001875,-0.28,0.14,0.0,9,-0.28000000000000064
56,2.958413800000926,-0.28,0.14,0.0,9,-0.2800000000000007
57,3.004660500000682,-0.28,0.14,0.0,9,-0.2800000000000007
58,3.051887199999328,-0.28,0.14,0.0,9,-0.28000000000000064
59,3.114138400000229,-0.28,0.14,0.0,9,-0.2800000000000006
60,3.1619544999994105,-0.28,0.14,0.0,9,-0.2800000000000006
61,3.20981010000105,-0.28,0.14,0.0,9,-0.28000000000000064
62,3.2565432000010333,-0.28,0.14,0.0,9,-0.2800000000000007
63,3.3198425000009597,-0.28,0.14,0.0,9,-0.2800000000000007
64,3.365276900000026,-0.28,0.14,0.0,9,-0.28000000000000064
65,3.412908000000243,-0.28,0.14,0.0,9,-0.2800000000000006
66,3.4594367000008788,-0.28,0.14,0.0,9,-0.2800000000000006
67,3.537960800000292,-0.28,0.14,0.0,9,-0.28000000000000064
68,3.585159100000965,-0.28,0.14,0.0,9,-0.2800000000000007
69,3.632007000000158,-0.28,0.14,0.0,9,-0.2800000000000007
70,3.67951979999998,-0.28,0.25,0.0,9,-0.28000000000000064
71,3.7274606000009953,-0.28,0.25,0.0,9,-0.2800000000000006
72,3.790688200000659,-0.28,0.25,0.0,9,-0.2800000000000006
73,3.8367722000002686,-0.28,0.14,0.0,9,-0.28000000000000064
74,3.88410870000007,-0.28,0.14,0.0,9,-0.2800000000000007
75,3.931860799999413,-0.28,0.14,0.0,9,-0.2800000000000007
76,3.979801299999963,-0.28,0.25,0.0,9,-0.28000000000000064
77,4.027270900000076,-0.28,0.14,0.0,9,-0.2800000000000006
78,4.072833000000173,-0.28,0.14,0.0,9,-0.2800000000000006
79,4.118431299999429,-0.28,0.14,0.0,9,-0.28000000000000064
80,4.166413200000534,-0.28,0.14,0.0,9,-0.2800000000000007
81,4.245396500000425,-0.28,0.14,0.0,9,-0.2800000000000007
82,4.288591300000917,-0.28,0.14,0.0,9,-0.28000000000000064
83,4.335703700000522,-0.28,0.25,0.0,9,-0.2800000000000006
84,4.397244800000408,-0.28,0.14,0.0,9,-0.2800000000000006
85,4.443877699999575,-0.28,0.14,0.0,9,-0.28000000000000064
86,4.492641900000308,-0.28,0.14,0.0,9,-0.2800000000000007
87,4.53918110000086,-0.28,0.25,0.0,9,-0.2800000000000007
88,4.586796800000229,-0.28,0.25,0.0,9,-0.28000000000000064
89,4.633711099999346,-0.28,0.14,0.0,9,-0.2800000000000006
90,4.68184250000013,-0.28,0.14,0.0,9,-0.2800000000000006
91,4.730485000000044,-0.28,0.14,0.0,9,-0.28000000000000064
92,4.777903399999559,-0.28,0.25,0.0,9,-0.2800000000000007
93,4.825503300000491,-0.28,0.14,0.0,9,-0.2800000000000007
94,4.887205900000481,-0.28,0.14,0.0,9,-0.28000000000000064
95,4.93250210000042,-0.28,0.14,0.0,9,-0.2800000000000006
96,4.978849799999807,-0.28,0.14,0.0,9,-0.2800000000000006
97,5.041032400000404,-0.28,0.03,0.0,9,-0.28000000000000064
98,5.10689149999962,-0.28,0.14,0.0,9,-0.2800000000000007
99,5.152716500000679,-0.28,0.14,0.0,9,-0.2800000000000007
100,5.199827300000834,-0.28,0.14,0.0,9,-0.28000000000000064
101,5.248190100001011,-0.28,0.14,0.0,9,-0.2800000000000006
102,5.293842200000654,-0.28,0.14,0.0,9,-0.2800000000000006
103,5.341709199999968,-0.28,0.14,0.0,9,-0.28000000000000064
104,5.387874699999884,-0.28,0.03,0.0,9,-0.2800000000000007
105,5.434033600000475,-0.28,0.14,0.0,9,-0.2800000000000007
106,5.497832400000334,-0.28,0.14,0.0,9,-0.28000000000000064
107,5.545131299999412,-0.28,0.14,0.0,9,-0.2800000000000006
108,5.608306399999492,-0.28,0.25,0.0,9,-0.2800000000000006
109,5.65579230000003,-0.28,0.14,0.0,9,-0.28000000000000064
110,5.7014180999995006,-0.28,0.14,0.0,9,-0.2800000000000007
111,5.763426200001049,-0.28,0.14,0.0,9,-0.2800000000000007
112,5.811276300000827,-0.28,0.14,0.0,9,-0.28000000000000064
113,5.857360699999845,-0.28,0.14,0.0,9,-0.2800000000000006
114,5.920528099999501,-0.28,0.14,0.0,9,-0.2800000000000006
115,5.966809100000319,-0.28,0.14,0.0,9,-0.28000000000000064
116,6.01605120000022,-0.28,0.14,0.0,9,-0.2800000000000007
117,6.059133299999303,-0.28,0.14,0.0,9,-0.2800000000000007
118,6.123180500000672,-0.28,0.14,0.0,9,-0.28000000000000064
119,6.185645199999271,-0.28,0.14,0.0,9,-0.2800000000000006
120,6.2337098000007245,-0.28,0.25,0.0,9,-0.2800000000000006
121,6.280628399999841,-0.28,0.14,0.0,9,-0.28000000000000064
122,6.33001239999976,-0.28,0.14,0.0,9,-0.2800000000000007
123,6.375273199999356,-0.28,0.14,0.0,9,-0.2800000000000007
124,6.423152699999264,-0.28,0.25,0.0,9,-0.28000000000000064
125,6.512767500000336,-0.28,0.14,0.0,9,-0.2800000000000006
126,6.591432499999428,-0.28,0.14,0.0,9,-0.2800000000000006
127,6.6389366000003065,-0.28,0.03,0.0,9,-0.28000000000000064
128,6.700740399999631,-0.28,0.14,0.0,9,-0.2800000000000007
129,6.746926199999507,-0.28,0.03,0.0,9,-0.2800000000000007
130,6.80900450000081,-0.28,0.14,0.0,9,-0.28000000000000064
131,6.856023500000447,-0.28,0.03,0.0,9,-0.2800000000000006
132,6.901589799999783,-0.28,0.14,0.0,9,-0.2800000000000006
133,6.949216500001057,-0.28,0.14,0.0,9,-0.28000000000000064
134,6.994866400000319,-0.28,0.14,0.0,9,-0.2800000000000007
135,7.072742800000924,-0.28,0.03,0.0,9,-0.2800000000000007
136,7.120537000000695,-0.28,0.14,0.0,9,-0.28000000000000064
137,7.167540200000076,-0.28,0.14,0.0,9,-0.2800000000000006
138,7.214735100000325,-0.28,0.14,0.0,9,-0.2800000000000006
139,7.261737799999537,-0.28,0.14,0.0,9,-0.28000000000000064
140,7.308104699999603,-0.28,0.14,0.0,9,-0.2800000000000007
141,7.3691180999994685,-0.28,0.03,0.0,9,-0.2800000000000007
142,7.416963899999246,-0.28,0.25,0.0,9,-0.28000000000000064
143,7.463758600000801,-0.28,0.14,0.0,9,-0.2800000000000006
144,7.50932549999925,-0.28,0.03,0.0,9,-0.2800000000000006
145,7.572677600001043,-0.28,0.14,0.0,9,-0.28000000000000064
146,7.619856100000106,-0.28,0.14,0.0,9,-0.2800000000000007
147,7.665711999999985,-0.28,0.14,0.0,9,-0.2800000000000007
148,7.712743100000807,-0.28,0.14,0.0,9,-0.28000000000000064
149,7.76009619999968,-0.28,0.14,0.0,9,-0.2800000000000006
150,7.822759399999995,-0.28,0.14,0.0,9,-0.2800000000000006
151,7.869744699999501,-0.28,0.14,0.0,9,-0.28000000000000064
152,7.915735200000199,-0.28,0.14,0.0,9,-0.2800000000000007
153,7.978005000000849,-0.28,0.14,0.0,9,-0.2800000000000007
154,8.05616000000009,-0.28,0.14,0.0,9,-0.28000000000000064
155,8.102525899999819,-0.28,0.14,0.0,9,-0.2800000000000006
156,8.149217000000135,-0.28,0.14,0.0,9,-0.2800000000000006
157,8.196501800000988,-0.28,0.14,0.0,9,-0.28000000000000064
158,8.243494599999394,-0.28,0.14,0.0,9,-0.2800000000000007
159,8.304904399999941,-0.28,0.14,0.0,9,-0.2800000000000007
160,8.35204800000065,-0.28,0.14,0.0,9,-0.28000000000000064
161,8.397155099999509,-0.28,0.14,0.0,9,-0.2800000000000006
162,8.44466310000098,-0.28,0.14,0.0,9,-0.2800000000000006
163,8.506808800000726,-0.28,0.14,0.0,9,-0.28000000000000064
164,8.569138400000156,-0.28,0.14,0.0,9,-0.2800000000000007
165,8.617061200000535,-0.28,0.14,0.0,9,-0.2800000000000007
166,8.663012299999536,-0.28,0.14,0.0,9,-0.28000000000000064
167,8.709234399999332,-0.28,0.14,0.0,9,-0.2800000000000006
168,8.756400100000974,-0.28,0.14,0.0,9,-0.2800000000000006
169,8.867385800000193,-0.28,0.14,0.0,9,-0.28000000000000064
170,8.913659600000756,-0.28,0.14,0.0,9,-0.2800000000000007
171,8.960216299999956,-0.28,0.14,0.0,9,-0.2800000000000007
172,9.036761100000149,-0.28,0.14,0.0,9,-0.28000000000000064
173,9.097834500000316,-0.28,0.03,0.0,9,-0.2800000000000006
174,9.144130500000756,-0.28,0.25,0.0,9,-0.2800000000000006
175,9.20686039999964,-0.28,0.14,0.0,9,-0.28000000000000064
176,9.269840599999952,-0.28,0.14,0.0,9,-0.2800000000000007
177,9.31724480000048,-0.28,0.14,0.0,9,-0.2800000000000007
178,9.379935599999952,-0.28,0.14,0.0,9,-0.28000000000000064
179,9.44316339999932,-0.28,0.14,0.0,9,-0.2800000000000006
180,9.490665700001044,-0.28,0.14,0.0,9,-0.2800000000000006
181,9.53688990000046,-0.28,0.25,0.0,9,-0.28000000000000064
182,9.597159799999645,-0.28,0.25,0.0,9,-0.2800000000000007
183,9.644879600000422,-0.28,0.14,0.0,9,-0.2800000000000007
184,9.69297329999972,-0.28,0.14,0.0,9,-0.28000000000000064
185,9.741745600000286,-0.28,0.03,0.0,9,-0.2800000000000006
186,9.802004000001034,-0.28,0.79,0.0,9,-0.2800000000000006
187,9.84940479999932,-0.28,0.79,0.0,9,-0.28000000000000064
188,9.896782199999508,-0.28,0.68,0.0,9,-0.2800000000000007
189,9.945446300000183,-0.28,0.46,0.0,9,-0.2800000000000007
190,10.019886199999746,-0.28,0.25,0.0,9,-0.28000000000000064
191,10.067014700000072,-0.28,0.03,0.0,9,-0.2800000000000006
192,10.114398400000937,-0.28,0.9,0.0,9,-0.2800000000000006
193,10.161077700000533,-0.28,0.79,0.0,9,-0.28000000000000064
194,10.20766370000092,-0.28,0.79,0.0,9,-0.2800000000000007
195,10.25503690000005,-0.28,0.68,0.0,9,-0.2800000000000007
196,10.330899900000077,-0.28,0.36,0.0,9,-0.28000000000000064
197,10.377852900001017,-0.28,0.03,0.0,9,-0.2800000000000006
198,10.42494749999969,-0.28,1.01,0.0,9,-0.2800000000000006
199,10.501119599999583,-0.28,0.9,0.0,9,-0.28000000000000064
200,10.54867109999941,-0.28,0.79,0.0,9,-0.2800000000000007
201,10.6108320000003,-0.28,0.57,0.0,9,-0.2800000000000007
202,10.656901000000287,-0.28,0.36,0.0,9,-0.28000000000000064
203,10.703586900001028,-0.28,0.25,0.0,9,-0.2800000000000006
204,10.74973619999946,-0.28,0.9,0.0,9,-0.2800000000000006
205,10.797711499999425,-0.28,0.79,0.0,9,-0.28000000000000064
206,10.843579399999726,-0.28,0.9,0.0,9,-0.2800000000000007
207,10.891908800000238,-0.28,0.68,0.0,9,-0.2800000000000007
208,10.939184400000158,-0.28,0.36,0.0,9,-0.28000000000000064
209,10.987160900000164,-0.28,0.14,0.0,9,-0.2800000000000006
210,11.034262600000147,-0.28,1.01,0.0,9,-0.2800000000000006
211,11.096846099999311,-0.28,0.79,0.0,9,-0.28000000000000064
212,11.144185900000592,-0.28,0.79,0.0,9,-0.2800000000000007
213,11.190485700000863,-0.28,0.68,0.0,9,-0.2800000000000007
214,11.23889109999982,-0.28,0.46,0.0,9,-0.28000000000000064
215,11.286145000000031,-0.28,0.25,0.0,9,-0.2800000000000006
216,11.333435399999871,-0.28,0.14,0.0,9,-0.2800000000000006
217,11.38170050000008,-0.28,1.01,0.0,9,-0.28000000000000064
218,11.42867280000064,-0.28,0.9,0.0,9,-0.2800000000000007
219,11.490266700000577,-0.28,0.9,0.0,9,-0.2800000000000007
220,11.539569700000357,-0.28,0.68,0.0,9,-0.28000000000000064
221,11.585446900000534,-0.28,0.36,0.0,9,-0.2800000000000006
222,11.632939799999804,-0.28,0.25,0.0,9,-0.2800000000000006
223,11.68154510000022,-0.28,1.01,0.0,9,-0.28000000000000064
224,11.72742130000006,-0.28,0.9,0.0,9,-0.2800000000000007
225,11.802739900000232,-0.28,0.9,0.0,9,-0.2800000000000007
226,11.850505399999747,-0.28,0.68,0.0,9,-0.28000000000000064
227,11.911630599999626,-0.28,0.25,0.0,9,-0.2800000000000006
228,11.957637699999395,-0.28,1.12,0.0,9,-0.2800000000000006
229,12.006833299999926,-0.28,0.9,0.0,9,-0.28000000000000064
230,12.06704560000071,-0.28,0.9,0.0,9,-0.2800000000000007
231,12.128964900000938,-0.28,0.79,0.0,9,-0.2800000000000007
232,12.210646400000767,-0.28,0.36,0.0,9,-0.28000000000000064
233,12.252501299999494,-0.28,0.03,0.0,9,-0.2800000000000006
234,12.30037110000012,-0.28,1.01,0.0,9,-0.2800000000000006
235,12.346245099999578,-0.28,1.01,0.0,9,-0.28000000000000064
236,12.410088799999356,-0.28,1.01,0.0,9,-0.2800000000000007
237,12.472167300000365,-0.28,0.68,0.0,9,-0.2800000000000007
238,12.519217799999751,-0.28,0.57,0.0,9,-0.28000000000000064
239,12.564733299999716,-0.28,0.03,0.0,9,-0.2800000000000006
240,12.642727399999783,-0.28,1.12,0.0,9,-0.2800000000000006
241,12.69032750000042,-0.28,0.9,0.0,9,-0.28000000000000064
242,12.73620149999988,-0.28,1.01,0.0,9,-0.2800000000000007
243,12.783660400000372,-0.28,0.79,0.0,9,-0.2800000000000007
244,12.829514900000504,-0.28,0.57,0.0,9,-0.28000000000000064
245,12.877125200000592,-0.28,0.14,0.0,9,-0.2800000000000006
246,12.940368800000217,-0.28,1.12,0.0,9,-0.2800000000000006
247,12.987973400000556,-0.28,1.01,0.0,9,-0.28000000000000064
248,13.049197599999388,-0.28,0.9,0.0,9,-0.2800000000000007
249,13.095992799999294,-0.28,0.79,0.0,9,-0.2800000000000007
250,13.143489100000808,-0.28,0.46,0.0,9,-0.28000000000000064
251,13.18979650000074,-0.28,0.14,0.0,9,-0.2800000000000006
252,13.251347299999908,-0.28,1.12,0.0,9,-0.2800000000000006
253,13.300594599999386,-0.28,1.01,0.0,9,-0.28000000000000064
254,13.34726199999932,-0.28,1.12,0.0,9,-0.2800000000000007
255,13.394101399999272,-0.28,0.79,0.0,9,-0.2800000000000007
256,13.442870599999878,-0.28,0.46,0.0,9,-0.28000000000000064
257,13.490779199999452,-0.28,0.14,0.0,9,-0.2800000000000006
258,13.551661699999386,-0.28,1.01,0.0,9,-0.2800000000000006
259,13.598724299999958,-0.28,0.9,0.0,9,-0.28000000000000064
260,13.646437200000946,-0.28,1.01,0.0,9,-0.2800000000000007
261,13.694193299999824,-0.28,0.9,0.0,9,-0.2800000000000007
262,13.73994700000003,-0.28,0.68,0.0,9,-0.28000000000000064
263,13.801095500000883,-0.28,0.14,0.0,9,-0.2800000000000006
264,13.849791700000424,-0.28,1.12,0.0,9,-0.2800000000000006
265,13.911202299999786,-0.28,0.9,0.0,9,-0.28000000000000064
266,13.956998300000125,-0.28,1.01,0.0,9,-0.2800000000000007
267,14.004838299999392,-0.28,0.79,0.0,9,-0.2800000000000007
268,14.050522300000011,-0.28,0.57,0.0,9,-0.28000000000000064
269,14.09813700000086,-0.28,0.36,0.0,9,-0.2800000000000006
270,14.163062400000854,-0.28,0.46,0.0,9,-0.2800000000000006
271,14.20895500000006,-0.28,1.12,0.0,9,-0.28000000000000064
272,14.269262300000264,-0.28,1.01,0.0,9,-0.2800000000000007
273,14.314786799999638,-0.28,0.79,0.0,9,-0.2800000000000007
274,14.360724300000584,-0.28,0.68,0.0,9,-0.28000000000000064
275,14.407670300000971,-0.28,0.36,0.0,9,-0.2800000000000006
276,14.47145249999994,-0.28,0.14,0.0,9,-0.2800000000000006
277,14.51724749999994,-0.28,1.01,0.0,9,-0.28000000000000064
278,14.564585800000714,-0.28,1.01,0.0,9,-0.2800000000000007
279,14.611663600000613,-0.28,0.9,0.0,9,-0.2800000000000007
280,14.65738710000005,-0.28,0.68,0.0,9,-0.28000000000000064
281,14.704986500000814,-0.28,0.36,0.0,9,-0.2800000000000006
282,14.752268599999296,-0.28,0.14,0.0,9,-0.2800000000000005
283,14.81433730000026,-0.28,0.9,0.0,9,-0.28000000000000047
284,14.862353200000143,-0.28,1.01,0.0,9,-0.28000000000000036
285,14.922253400000043,-0.28,1.01,0.0,9,-0.28000000000000025
286,14.970091299999694,-0.28,0.68,0.0,9,-0.28000000000000014
287,15.015852599999562,-0.28,0.36,0.0,9,-0.2799999999999999
288,15.062463000000209,-0.28,0.36,0.0,9,-0.2799999999999997
289,15.127055999999357,-0.28,0.9,0.0,9,-0.27999999999999947
290,15.173185699999522,-0.28,1.01,0.0,9,-0.27999999999999925
291,15.219138500000554,-0.28,1.01,0.0,9,-0.279999999999999
292,15.298375000000306,-0.28,0.68,0.0,9,-0.2799999999999989
293,15.339466100000209,-0.28,0.25,0.0,9,-0.27999999999999886
294,15.402096300000268,-0.28,1.12,0.0,9,-0.2799999999999989
295,15.44865639999989,-0.28,0.9,0.0,9,-0.279999999999999
296,15.511130299999422,-0.28,0.9,0.0,9,-0.2799999999999992
297,15.557818600000246,-0.28,0.79,0.0,9,-0.27999999999999936
298,15.605293200000231,-0.28,0.57,0.0,9,-0.2799999999999996
299,15.667923000000885,-0.28,0.14,0.0,9,-0.2799999999999998
300,15.714864800000214,-0.28,1.12,0.0,9,-0.28000000000000014
301,15.76252740000018,-0.28,0.9,0.0,9,-0.2800000000000005
302,15.808625699999538,-0.28,0.9,0.0,9,-0.2800000000000009
303,15.887790900000256,-0.28,0.79,0.0,9,-0.28000000000000125
304,15.932868899999448,-0.28,0.46,0.0,9,-0.28000000000000147
305,15.995480400000815,-0.28,0.25,0.0,9,-0.2800000000000015
306,16.042336200000136,-0.28,1.01,0.0,9,-0.2800000000000014
307,16.089766099999906,-0.28,1.01,0.0,9,-0.28000000000000114
308,16.137732600000163,-0.28,1.01,0.0,9,-0.28000000000000064
309,16.184540800000832,-0.28,0.68,0.0,9,-0.2799999999999998
310,16.231374799999685,-0.28,0.57,0.0,9,-0.2799999999999987
311,16.278692500000034,-0.28,0.14,0.0,9,-0.2799999999999973
312,16.325544600000285,-0.28,1.12,0.0,9,-0.2799999999999958
313,16.385285000000295,-0.28,1.01,0.0,9,-0.27999999999999436
314,16.43244869999944,-0.28,0.9,0.0,9,-0.27999999999999314
315,16.478397900000346,-0.28,0.79,0.0,9,-0.27999999999999237
316,16.539104600000428,-0.28,0.57,0.0,9,-0.27999999999999226
317,16.600908000000345,-0.28,0.25,0.0,9,-0.279999999999993
318,16.65131250000013,-0.28,1.12,0.0,9,-0.2799999999999947
319,16.694569999999658,-0.28,1.01,0.0,9,-0.2799999999999977
320,16.756246299999475,-0.28,0.9,0.0,9,-0.28000000000000214
321,16.80249130000084,-0.28,0.79,0.0,9,-0.280000000000008
322,16.850435300000754,-0.28,0.68,0.0,9,-0.2800000000000151
323,16.89842259999932,-0.28,0.25,0.0,9,-0.280000000000023
324,16.97573360000024,-0.28,1.01,0.0,9,-0.280000000000031
325,17.023326300000917,-0.28,1.01,0.0,9,-0.28000000000003833
326,17.087998900000457,-0.28,1.01,0.0,9,-0.2800000000000439
327,17.13166900000033,-0.28,0.68,0.0,9,-0.2800000000000464
328,17.17884210000011,-0.28,0.57,0.0,9,-0.28000000000004444
329,17.225680900000953,-0.28,0.14,0.0,9,-0.28000000000003666
330,17.27218560000074,-0.28,1.12,0.0,9,-0.28000000000002173
331,17.31991729999936,-0.28,1.01,0.0,9,-0.2799999999999989
332,17.36719330000051,-0.28,1.01,0.0,9,-0.27999999999996794
333,17.41453349999938,-0.28,0.9,0.0,9,-0.2799999999999295
334,17.4614973000007,-0.28,0.68,0.0,9,-0.27999999999988534
335,17.52373919999991,-0.28,0.14,0.0,9,-0.2799999999998384
