,time,angle,pressure,set_point,motor_speed,Filtered_angle
0,0.0462244999998802,0.3,19.76,0.0,-10,0.3145569130967955
1,0.0958148000008805,0.3,19.76,0.0,-10,0.15575216420096197
2,0.1414213999996718,-0.46,19.76,0.0,-10,0.00356989882024651
3,0.1892741999999998,-0.55,19.76,0.0,-10,-0.13678784329151333
4,0.2527164000002813,-0.55,19.76,0.0,19,-0.26165828853169115
5,0.3285917000011977,-0.55,19.76,0.0,19,-0.36926695063526593
6,0.3754765000012412,-0.55,19.76,0.0,19,-0.45976303520205974
7,0.4229658000003837,-0.55,19.87,0.0,19,-0.5349727522584385
8,0.4697984000013093,-0.55,19.76,0.0,19,-0.5979588008424541
9,0.5371668000007048,-0.55,19.76,0.0,19,-0.6524773358209001
10,0.5794488999999885,-0.55,19.76,0.0,19,-0.7024106212136739
11,0.6249036000008346,-0.55,19.87,0.0,19,-0.7512417452567304
12,0.6733438999999635,-0.55,19.87,0.0,19,-0.8016293210047768
13,0.7212775000007241,-0.55,19.76,0.0,19,-0.8551351801412322
14,0.7818839999999909,-0.55,19.87,0.0,19,-0.9121563583600898
15,0.8292259000008926,-1.31,19.76,0.0,19,-0.9721014531968768
16,0.8766630999998597,-1.32,19.76,0.0,46,-1.033793603322781
17,0.9399069999999484,-1.32,19.76,0.0,46,-1.0959764158783634
18,1.0028583000002982,-1.32,19.87,0.0,46,-1.1577402894765452
19,1.0498164000000545,-1.32,19.87,0.0,46,-1.2187474690986417
20,1.097722900000008,-1.32,19.87,0.0,46,-1.279243657493905
21,1.1466980000004696,-1.32,19.87,0.0,46,-1.3399053862394303
22,1.1921425000000454,-1.32,19.76,0.0,46,-1.4015847830580292
23,1.2563065000013012,-1.32,19.76,0.0,46,-1.4650133206086715
24,1.3028905000010127,-1.32,19.76,0.0,46,-1.530526424500691
25,1.350605200001155,-1.32,19.76,0.0,46,-1.597871758986088
26,1.397361400000591,-1.32,19.87,0.0,46,-1.6661654917370332
27,1.46080240000083,-2.08,19.76,0.0,46,-1.7340505302364901
28,1.5080412000006618,-2.08,19.76,0.0,46,-1.8000521450493883
29,1.5540988000011566,-2.08,19.87,0.0,72,-1.8630190535284006
30,1.6173471000001882,-2.08,19.76,0.0,72,-1.9224775634844806
31,1.6805592000000615,-2.08,19.76,0.0,72,-1.978784690258951
32,1.7248810000000958,-2.08,19.76,0.0,72,-2.0330715486349344
33,1.786992500001361,-2.08,19.76,0.0,72,-2.0870253542911876
34,1.836716300000262,-2.08,19.87,0.0,72,-2.142567739203029
35,1.883415800000876,-2.08,19.76,0.0,72,-2.20148544600441
36,1.9451468999996,-2.08,19.76,0.0,72,-2.265069298439724
37,1.992643200001112,-2.08,19.76,0.0,72,-2.3338188493743477
38,2.054571500000748,-2.08,19.87,0.0,72,-2.407273154672969
39,2.101753500000996,-2.08,19.65,0.0,72,-2.4840322598983327
40,2.148773400000209,-2.97,19.76,0.0,72,-2.562024464284703
41,2.196879600000102,-2.98,19.87,0.0,104,-2.63900810765311
42,2.258598600001278,-2.98,19.76,0.0,104,-2.71317226223453
43,2.3214119000003848,-2.98,19.76,0.0,104,-2.7836301770863083
44,2.399994400000651,-2.98,19.76,0.0,104,-2.850668069853929
45,2.447189000000435,-2.98,19.76,0.0,104,-2.9157369040130767
46,2.4965752999996766,-2.98,19.87,0.0,104,-2.9812435554010417
47,2.544338499999867,-2.98,19.76,0.0,104,-3.0502100002601003
48,2.6012862999996287,-2.98,19.76,0.0,104,-3.1258680248226685
49,2.647726400000465,-2.98,19.87,0.0,104,-3.211257852681363
50,2.6950253000013618,-2.98,19.87,0.0,104,-3.308902741434176
51,2.743134000000282,-3.87,19.87,0.0,135,-3.4206241801551864
52,2.790222100000392,-3.87,19.87,0.0,135,-3.547501537158119
53,2.8671754999995755,-3.87,19.87,0.0,135,-3.689865436014252
54,2.92942370000128,-3.87,19.87,0.0,135,-3.847157554462015
55,2.9759454000013648,-3.87,19.87,0.0,135,-4.017574509907625
56,3.022905200001333,-3.87,19.87,0.0,135,-4.197554875915541
57,3.072415900000124,-3.87,19.87,0.0,135,-4.381252732606352
58,3.1328419000001304,-3.87,19.76,0.0,135,-4.560167129413789
59,3.18025740000121,-3.87,19.87,0.0,135,-4.723104799295055
60,3.241112300000168,-3.87,19.87,0.0,135,-4.8566552706627535
61,3.3028499000010925,-4.62,19.87,0.0,135,-4.9463389076570365
62,3.3649717000007517,-5.4,19.87,0.0,135,-4.9784992028599016
63,3.411971400000766,-5.41,19.32,0.0,189,-4.942812004136712
64,3.473625500000708,-5.41,18.67,0.0,189,-4.835069969647377
65,3.522577800000363,-5.41,17.9,0.0,189,-4.659841216178566
66,3.5702596999999514,-5.41,17.25,0.0,189,-4.432704524343934
67,3.614233899999818,-5.41,16.81,0.0,189,-4.181868042997772
68,3.675854099999924,-5.41,16.05,0.0,189,-3.948993305385728
69,3.7547534000004816,-5.41,16.6,0.0,189,-3.789016447546837
70,3.814570300000924,-5.41,18.67,0.0,189,-3.768744737080664
71,3.862749600000825,-5.41,26.08,0.0,189,-3.96403449439173
72,3.90963069999998,-5.41,0.36,0.0,189,-4.455438865769078
73,3.9581421000002592,-5.41,0.36,0.0,189,-5.322361622537574
74,4.004409000001033,-5.41,0.57,0.0,189,-6.6359742240509805
75,4.053430900001331,-5.41,0.14,0.0,189,-8.451451449640407
76,4.130411699999968,-5.41,0.46,0.0,189,-10.800453933874982
77,4.176519399999961,-8.79,-0.08,0.0,236,-13.685171809733031
78,4.224219699999594,-13.92,0.14,0.0,236,-17.075385416149853
79,4.285992200000692,-21.2,0.57,0.0,255,-20.909516235973232
80,4.338408100000379,-25.07,0.46,0.0,255,-25.099527313343437
81,4.380062899999757,-29.41,0.03,0.0,255,-29.53847365104834
82,4.4580540000006295,-36.89,0.03,0.0,255,-34.10923207604951
83,4.505437400001028,-41.36,0.25,0.0,255,-38.693272725779146
84,4.553074000001288,-45.16,0.79,0.0,255,-43.17855806054367
85,4.600599299999885,-48.52,0.46,0.0,255,-47.46575678180626
86,4.664730700000291,-52.53,0.25,0.0,255,-51.472384238803706
87,4.713353099999949,-56.19,-0.19,0.0,255,-55.13505797116736
88,4.760830999999598,-59.1,0.46,0.0,255,-58.41029349082231
89,4.822231300000567,-61.93,0.57,0.0,255,-61.27416126110702
90,4.8862456000006205,-63.96,0.25,0.0,255,-63.72099983064128
91,4.934148399999685,-66.12,0.03,0.0,255,-65.76136099796152
92,4.979530300000988,-67.39,0.25,0.0,255,-67.4193778818213
93,5.028219200001331,-68.51,0.79,0.0,255,-68.72974158532153
94,5.090762900001209,-69.47,0.68,0.0,255,-69.73446697441348
95,5.139070600000196,-69.58,0.03,0.0,255,-70.47964110272598
96,5.202119499999753,-70.47,-0.19,0.0,255,-71.01236662456864
97,5.264501800000289,-70.47,0.36,0.0,255,-71.37811659431048
98,5.311791600001016,-71.39,-0.19,0.0,255,-71.61867525444826
99,5.373869000000923,-71.39,0.14,10.0,255,-71.77073431069118
100,5.422099600000365,-71.39,0.03,10.0,255,-71.86509144347258
101,5.46771500000068,-71.39,0.36,10.0,255,-71.92634524527223
102,5.528974400000152,-72.16,0.03,10.0,255,-71.97301943501631
103,5.576707800000804,-72.16,0.25,10.0,255,-72.01807027043185
104,5.6243228000003,-72.16,0.03,10.0,255,-72.06965632121855
105,5.6861188000002585,-72.16,0.79,10.0,255,-72.13198461268202
106,5.734127300000182,-72.16,0.03,10.0,255,-72.20610266587406
107,5.782044700001279,-72.16,0.79,10.0,255,-72.29061895793588
108,5.84396949999973,-72.16,0.68,10.0,255,-72.38240354933363
109,5.891814000000522,-72.88,0.14,10.0,255,-72.47733147357575
110,5.954360699999597,-72.96,-0.19,10.0,255,-72.57108258764963
111,6.031039999999848,-72.96,0.36,10.0,255,-72.65990957135062
112,6.076907300001039,-72.96,0.03,10.0,255,-72.74122058847641
113,6.124683500000174,-72.96,0.25,10.0,255,-72.81387284918594
114,6.17098950000036,-72.96,0.36,10.0,255,-72.8781777687789
115,6.218626500000028,-72.96,0.03,10.0,255,-72.93568006500777
116,6.282866600000489,-72.96,0.14,10.0,255,-72.98878312767376
117,6.330823300000702,-72.96,0.79,10.0,255,-73.04028672903003
118,6.377871000000596,-72.96,0.36,10.0,255,-73.0928969046919
119,6.443874700000379,-72.96,0.14,10.0,255,-73.14876368517373
120,6.491895299999669,-72.96,0.03,10.0,255,-73.20910067644175
121,6.570777500000986,-72.96,0.46,10.0,255,-73.27394120006802
122,6.617496400000164,-72.96,-0.08,10.0,255,-73.34208831010507
123,6.677672100000564,-73.73,0.36,10.0,255,-73.41130750705136
124,6.724601800000528,-73.73,0.14,10.0,255,-73.47875385558697
125,6.7848326000003,-73.73,0.03,10.0,255,-73.54151841223555
126,6.863044400000945,-73.73,0.68,10.0,255,-73.59711873483634
127,6.908675000000585,-73.73,0.14,10.0,255,-73.64381717293668
128,6.955817899999602,-73.73,0.14,10.0,255,-73.68075559808857
129,7.003090300000622,-73.73,0.36,10.0,255,-73.70794930188228
130,7.050032400000418,-73.73,1.01,10.0,255,-73.72618659100635
131,7.111763000000792,-73.73,1.01,10.0,255,-73.73687139178517
132,7.1885880999998335,-73.73,0.14,10.0,255,-73.74183690624383
133,7.236076299999695,-73.73,0.68,10.0,255,-73.74314977384215
134,7.283906300001036,-73.73,0.14,10.0,255,-73.74291688602057
135,7.345714700000826,-73.73,-0.19,10.0,255,-73.74310139974047
136,7.407703799999581,-73.73,0.36,10.0,255,-73.74535083807751
137,7.454867300000842,-73.73,0.25,10.0,255,-73.75083849758377
138,7.546922600000471,-73.73,0.25,10.0,255,-73.76011956719739
139,7.596389600001203,-73.73,-0.19,10.0,255,-73.77300509317135
140,7.642241100000319,-73.73,0.25,10.0,255,-73.78845973116748
141,7.689859100000831,-73.73,0.46,10.0,255,-73.80453249988163
142,7.733678100001271,-73.73,-0.08,10.0,255,-73.81833275714862
143,7.79693060000136,-73.73,7.55,10.0,255,-73.82606552986582
144,7.8594236000008095,-73.73,12.13,10.0,255,-73.82314025280833
145,7.920860600001106,-73.73,10.82,10.0,255,-73.80436400408384
146,7.967758500000855,-73.73,11.47,10.0,255,-73.76422360798209
147,8.03057760000047,-73.73,10.49,10.0,255,-73.6972497682622
148,8.09173329999976,-73.73,11.26,10.0,255,-73.59844015312638
149,8.139298000000053,-73.73,11.47,10.0,255,-73.46369681277301
150,8.204070100000536,-73.73,11.04,10.0,255,-73.29020655642718
151,8.250299000001178,-72.94,11.36,10.0,255,-73.07667389691498
152,8.327640499999688,-72.93,12.78,10.0,255,-72.82334332560636
153,8.390706100000898,-72.93,12.46,10.0,255,-72.53182267394553
154,8.437361100000999,-71.94,13.0,10.0,255,-72.20475939648087
155,8.483354100000724,-71.94,13.87,10.0,255,-71.84539898228316
156,8.530554200000552,-71.24,12.46,10.0,255,-71.45705555919274
157,8.576785600000221,-70.28,13.65,10.0,255,-71.04257405493004
158,8.655296900000394,-70.18,14.09,10.0,255,-70.60391610304532
159,8.716580500000418,-70.18,13.11,10.0,255,-70.14203099252828
160,8.793438599999718,-70.18,13.44,10.0,255,-69.65710252409356
161,8.840299600000435,-69.25,14.42,10.0,255,-69.1490692315801
162,8.901643500001228,-69.24,13.98,10.0,255,-68.61816545648415
163,8.963476200000514,-68.22,15.94,10.0,255,-68.06525529094941
164,9.04139010000108,-67.23,16.6,10.0,255,-67.4918561641941
165,9.088639499999772,-67.23,14.85,10.0,255,-66.89987502444215
166,9.1509274,-65.44,16.27,10.0,255,-66.29117477871657
167,9.21268510000118,-65.34,15.83,10.0,255,-65.66713388655329
168,9.275282100001276,-64.54,15.72,10.0,255,-65.02837950374068
169,9.322774700000082,-64.54,18.01,10.0,255,-64.3748546625351
170,9.416521799999828,-64.54,15.94,10.0,255,-63.70624999221388
171,9.466998699999747,-63.3,18.45,10.0,255,-63.02262004967544
172,9.512826899999707,-62.28,16.38,10.0,255,-62.324884586967435
173,9.561013000000456,-62.28,18.78,10.0,255,-61.61500697467602
174,9.608030600000347,-61.36,17.03,10.0,255,-60.89582000767709
175,9.717972100001134,-59.55,19.1,10.0,255,-60.17052698903566
176,9.791731700001035,-58.19,18.12,10.0,255,-59.4419326784368
177,9.83892460000061,-58.05,21.94,10.0,255,-58.711646055771546
178,9.918527100000574,-58.05,29.68,10.0,255,-57.97966481331337
179,10.000151100000949,-58.05,29.24,10.0,255,-57.24458487913162
180,10.04289030000109,-57.22,17.9,10.0,255,-56.50426249093876
181,10.088755099999617,-56.12,18.12,10.0,255,-55.75647486391868
182,10.182371099999727,-54.05,20.3,10.0,255,-54.99920342009885
183,10.240872300000774,-53.93,19.98,10.0,255,-54.23051268045266
184,10.289817400000176,-53.16,18.67,10.0,255,-53.448325285376725
185,10.334556100000556,-53.16,18.89,10.0,255,-52.65042053720929
186,10.382008100001258,-51.97,18.34,10.0,255,-51.83472472597844
187,10.42954980000104,-50.86,19.87,10.0,255,-50.99971654005329
188,10.478048700000729,-50.04,18.45,10.0,255,-50.14476616733813
189,10.5536845000006,-49.94,18.45,10.0,255,-49.27037551208638
190,10.634850700000245,-49.05,19.43,10.0,255,-48.37833755737132
191,10.680713699999616,-46.68,19.43,10.0,255,-47.47173135043443
192,10.739959000000454,-46.57,18.89,10.0,255,-46.554657182395566
193,10.786299800000052,-45.73,18.78,10.0,255,-45.63179774835027
194,10.911310200001026,-44.84,19.43,10.0,255,-44.70799344151644
195,10.972346399999878,-43.71,21.39,10.0,255,-43.7878915632012
196,11.01929420000124,-42.75,21.5,10.0,255,-42.875603384663826
197,11.06631279999965,-41.79,19.76,10.0,255,-41.974340574069416
198,11.113491500000237,-40.8,19.54,10.0,255,-41.086087132050665
199,11.17736429999968,-39.79,19.43,20.0,255,-40.21139277333463
200,11.222783799999888,-39.78,21.61,20.0,255,-39.34936040219101
201,11.300720700000966,-38.02,19.76,20.0,255,-38.49784722546116
202,11.347335600001315,-37.93,20.85,20.0,255,-37.65382502308633
203,11.410440800000288,-37.05,19.65,20.0,255,-36.81381750913489
204,11.457161399999675,-36.29,19.98,20.0,255,-35.97433826764882
205,11.520037199999932,-35.16,19.54,20.0,255,-35.13223424478868
206,11.567037200000414,-34.24,20.19,20.0,255,-34.284851071061546
207,11.645341100000223,-33.17,22.26,20.0,255,-33.43002595932662
208,11.69324030000098,-32.05,21.17,20.0,255,-32.56601375533319
209,11.741344100000788,-32.04,20.19,20.0,255,-31.691491892691655
210,11.789156200000434,-31.11,19.87,20.0,255,-30.80573482626719
211,11.85106960000121,-30.23,20.19,20.0,255,-29.908900352662542
212,11.914410999999744,-29.08,20.52,20.0,255,-29.002249735210444
213,11.976773300000788,-28.08,20.3,20.0,255,-28.088158952640185
214,12.024069200000667,-27.25,20.3,20.0,255,-27.169912756259293
215,12.11530920000041,-26.18,20.52,20.0,255,-26.25135929824077
216,12.160363400000278,-25.35,20.19,20.0,255,-25.336501290447092
217,12.206249099999695,-24.35,22.37,20.0,255,-24.42906824366049
218,12.27048090000062,-23.29,20.41,20.0,255,-23.5320999324652
219,12.31836900000053,-22.39,19.98,20.0,255,-22.647580758565798
220,12.3956732000006,-21.46,20.52,20.0,255,-21.776188091773356
221,12.443371400000617,-20.58,20.08,20.0,255,-20.91723188276313
222,12.490934900000866,-20.49,20.85,20.0,255,-20.068840366709455
223,12.5670151000013,-19.47,22.7,20.0,255,-19.228366914964283
224,12.615102300000215,-18.0,20.63,20.0,255,-18.39289003646662
225,12.662982699999702,-17.93,20.52,20.0,255,-17.55966842832238
226,12.723723099999916,-16.93,20.74,20.0,255,-16.72651168745721
227,12.772492899999634,-15.93,20.3,20.0,255,-15.892075718597582
228,12.833378999999695,-15.15,20.63,20.0,255,-15.056051458815256
229,12.89643690000048,-14.14,20.63,20.0,255,-14.219218435573591
230,12.943915699999708,-14.13,20.63,20.0,255,-13.383382763442835
231,13.0072667000004,-12.33,20.96,20.0,255,-12.551202912310607
232,13.052799400000367,-11.57,20.3,20.0,255,-11.725858055311104
233,13.166187300001184,-10.66,22.59,20.0,255,-10.91056105096826
234,13.21285700000044,-9.86,22.48,20.0,255,-10.10803504520901
235,13.271178099999815,-9.0,20.74,20.0,255,-9.320110070784999
236,13.317993100001331,-8.24,20.63,20.0,255,-8.547538732890802
237,13.378491499999654,-8.23,20.19,20.0,255,-7.790065773565502
238,13.426669700000277,-7.23,20.74,20.0,255,-7.046711887353856
239,13.47581960000025,-6.28,20.52,20.0,255,-6.316136918865056
240,13.53507720000016,-5.31,20.74,20.0,255,-5.596935772478239
241,13.58554340000046,-5.3,20.85,20.0,255,-4.887835691561245
242,13.647350500001266,-4.43,20.52,20.0,255,-4.187849814124796
243,13.696631200000413,-3.54,20.08,20.0,255,-3.4963843508619616
244,13.770577400000548,-2.7,20.19,20.0,255,-2.813224424235787
245,13.81676669999979,-1.77,20.08,20.0,255,-2.138379818084882
246,13.880080900000394,-1.66,20.08,20.0,255,-1.471883841117306
247,13.927128900000753,-0.72,22.81,20.0,255,-0.8136590579561755
248,13.990300499999648,0.07,22.59,20.0,255,-0.16348619529903607
249,14.038113300000989,0.16,20.52,20.0,255,0.4789498216559374
250,14.11545600000136,1.02,20.08,20.0,255,1.1139685334784175
251,14.161680299999716,1.96,20.52,20.0,255,1.7417996992726974
252,14.21026250000068,2.06,20.41,20.0,255,2.362534919557437
253,14.28642370000125,2.82,20.63,20.0,255,2.976140310137809
254,14.347707700000685,3.63,20.41,20.0,255,3.582534737819525
255,14.393911500001195,4.65,19.98,20.0,255,4.18175092559834
256,14.456311699999787,4.66,20.41,20.0,255,4.774144520276011
257,14.503822100001344,5.65,22.16,20.0,255,5.360545722088948
258,14.567571900000983,5.65,20.52,20.0,255,5.942275629503623
259,14.629811099999642,6.61,19.98,20.0,255,6.521043452345313
260,14.6767061999999,7.49,20.41,20.0,255,7.09878887303901
261,14.72589700000026,7.5,20.52,20.0,255,7.677496248554176
262,14.774164800001016,8.35,20.63,20.0,255,8.25894705993405
263,14.818953199999669,8.35,19.98,20.0,255,8.844392107568517
264,14.8964945000007,9.33,19.98,20.0,255,9.434210210341293
265,14.946277700000792,10.2,19.98,20.0,255,10.027665946355706
266,15.02340980000008,10.3,19.98,20.0,255,10.62282600915271
267,15.068940900000598,11.15,19.98,20.0,255,11.216610532319141
268,15.116316100000404,12.03,20.52,20.0,255,11.804939269103036
269,15.16339270000026,12.13,20.41,20.0,255,12.382955012058988
270,15.243252600001142,12.94,20.74,20.0,255,12.94530055801098
271,15.289059000000634,13.8,20.74,20.0,247,13.486423695214286
272,15.336314700000004,13.89,20.41,20.0,247,14.000893471625663
273,15.38463580000098,14.67,22.48,20.0,213,14.483691078950303
274,15.464016199999604,14.68,20.19,20.0,213,14.930435960541109
275,15.511053100000936,15.53,20.3,20.0,186,15.337553739893236
276,15.556967300000906,15.63,20.74,20.0,186,15.70242418527457
277,15.617895100000167,16.4,20.96,20.0,152,16.023525026495495
278,15.694055400001162,16.4,20.08,20.0,125,16.300538338165072
279,15.74227940000128,16.4,20.52,20.0,125,16.534358552768587
280,15.790093600000546,16.4,20.41,20.0,125,16.72697882326013
281,15.86774080000032,17.15,20.3,20.0,125,16.88131920297545
282,15.915953400000944,17.15,19.98,20.0,99,17.00108880525159
283,15.963496899999882,17.15,20.08,20.0,99,17.090688986717467
284,16.0127250000005,17.15,20.52,20.0,99,17.155079485347912
285,16.056319900000744,17.15,20.3,20.0,99,17.199554232955197
286,16.119666500000676,17.15,20.52,20.0,99,17.229450044729766
287,16.16856110000117,17.15,20.3,20.0,99,17.249845357781084
288,16.25703869999961,17.15,20.19,20.0,99,17.265297939588503
289,16.304306300000462,17.15,20.19,20.0,99,17.27965556937866
290,16.366443900000377,17.15,21.28,20.0,99,17.295963716125218
291,16.412242500000502,17.15,20.3,20.0,99,17.316488723477033
292,16.49129830000129,17.15,21.39,20.0,99,17.342873319595803
293,16.54027440000027,17.15,20.41,20.0,99,17.376442675232685
294,16.585509000000457,17.89,20.3,20.0,99,17.418671367853996
295,16.63266450000083,17.97,20.3,20.0,99,17.471767647147644
296,16.6803572000008,17.97,20.19,20.0,70,17.53922733994507
297,16.74306600000091,17.97,20.3,20.0,70,17.626149255838428
298,16.789543900000353,17.97,20.3,20.0,70,17.73916796004337
299,16.85312520000116,17.97,20.3,30.0,70,17.88598688565488
300,16.900022499999977,17.97,20.19,30.0,255,18.07458528435358
301,16.9623303999997,17.97,20.19,30.0,255,18.312217625497727
302,17.00982980000117,17.97,21.94,30.0,255,18.60435963539998
303,17.07186830000137,18.74,20.19,30.0,255,18.95378466470942
304,17.152973700000075,18.82,20.63,30.0,255,19.359940248599013
305,17.19887270000072,19.76,20.41,30.0,255,19.818717253019766
306,17.244599300000118,19.76,19.98,30.0,255,20.32261308957084
307,17.323055300001215,20.75,19.87,30.0,255,20.861250459395325
308,17.369663100000253,21.64,22.59,30.0,255,21.422213073115973
309,17.448796200000288,22.55,20.74,30.0,255,21.992124328554766
310,17.494528500001252,22.64,20.41,30.0,255,22.557802712003944
311,17.58707250000043,23.47,20.3,30.0,228,23.107283386633238
312,17.63445490000049,24.23,20.19,30.0,228,23.630568214171742
313,17.681603400000313,24.24,20.52,30.0,201,24.120054295052874
314,17.729539199999635,24.24,20.52,30.0,201,24.570624167113674
315,17.83615219999956,25.1,20.85,30.0,171,24.97944528037877
316,17.88473619999968,25.1,20.74,30.0,171,25.345624756973347
317,17.92955780000011,25.99,20.96,30.0,171,25.669867296978413
318,18.008979199999885,26.0,21.28,30.0,140,25.954179604635282
319,18.068515000000843,26.0,21.17,30.0,140,26.201576276927835
320,18.116567600000053,26.0,21.83,30.0,140,26.415751387628948
321,18.164025300000503,26.93,21.28,30.0,140,26.600763074536985
322,18.211610700000165,26.93,21.17,30.0,107,26.760809065850257
