,time,angle,pressure,set_point,motor_speed,Filtered_angle
0,0.0471780000007129,-0.78,7.99,0.0,69,-0.7799796257513157
1,0.0930874000005133,-0.78,8.2,0.0,69,-0.7812875456560825
2,0.140488600000026,-0.78,8.09,0.0,69,-0.7774920102950907
3,0.1890892000010353,0.05,8.75,0.0,41,0.04635989407150009
4,0.2323562000001402,0.05,8.53,0.0,41,0.05465033070169423
5,0.2790499000002455,0.05,8.86,0.0,41,0.04448526464500113
6,0.3253163000008499,0.05,8.09,0.0,41,0.05621870594027019
7,0.372238500000094,0.05,7.66,0.0,41,0.0432442940889847
8,0.4193785000006755,0.05,8.31,0.0,41,0.05712592363174393
9,0.4822805000003427,0.05,8.2,0.0,41,0.04266498742114119
10,0.5292863000013313,0.05,8.2,0.0,41,0.05739293239857776
11,0.5771479000013642,0.05,7.55,0.0,41,0.04268710348649314
12,0.6250215000000026,0.05,8.2,0.0,41,0.05711042956838512
13,0.6864304000009724,0.05,8.75,0.0,41,0.0431974642560989
14,0.7314202000015939,0.05,7.99,0.0,41,0.0564069768960668
15,0.7800293000000238,0.05,8.31,0.0,41,0.0440583423661624
16,0.8272229000012885,0.05,7.77,0.0,41,0.055424112853233835
17,0.8757164000016928,0.05,8.31,0.0,41,0.04512890808510794
18,0.9215734000008524,0.05,7.66,0.0,41,0.054298232587083196
19,0.9693789000011748,0.05,8.2,0.0,41,0.04628018292673724
20,1.016482900000483,0.05,7.66,0.0,41,0.053148601891235006
21,1.064056300001539,0.05,8.2,0.0,41,0.04740428694594928
22,1.110773500000505,0.05,8.75,0.0,41,0.05207059790104042
23,1.1577812000014092,0.05,8.2,0.0,41,0.048418974981544786
24,1.2045406000015646,0.05,8.64,0.0,41,0.05113312394889122
25,1.2523473000001104,0.05,8.09,0.0,41,0.04926854320796579
26,1.299253700000918,0.05,8.64,0.0,41,0.050379114321198785
27,1.3622712000014872,0.05,8.09,0.0,41,0.049922170143908165
28,1.4094305000016902,0.05,8.2,0.0,41,0.04982810481864387
29,1.456207800001721,0.05,7.77,0.0,41,0.050370659366545896
30,1.5031448000008822,0.05,8.2,0.0,41,0.04947997239687434
31,1.5652466000010463,0.05,8.64,0.0,41,0.05062239948964498
32,1.6109706000006554,0.05,8.2,0.0,41,0.04931911723768262
33,1.659041700000671,0.05,8.64,0.0,41,0.05069917411255994
34,1.7061742000005324,0.05,7.99,0.0,41,0.04931855102866359
35,1.7684097000001202,0.05,8.53,0.0,41,0.050632261191594675
36,1.81493380000029,0.05,7.66,0.0,41,0.04944354704567736
37,1.8595338000013728,0.05,8.2,0.0,41,0.05045907468033568
38,1.906899900001008,0.05,8.64,0.0,41,0.04965468574527009
39,1.9550457000004824,0.05,8.2,0.0,41,0.05022043446847922
40,2.001225800000612,0.05,8.53,0.0,41,0.04991028274479907
41,2.0500057000008383,0.05,8.09,0.0,41,0.049958413052839275
42,2.098691200000758,0.05,8.53,0.0,41,0.050168306548857476
43,2.143584200000987,0.05,8.2,0.0,40,0.0497146051966802
44,2.1904474000002665,0.05,8.42,0.0,40,0.05038797638267503
45,2.2504477000002225,0.05,8.2,0.0,40,0.04952860359642187
46,2.297724800000651,0.05,7.99,0.0,40,0.05053127362861556
47,2.344500500001232,0.05,8.31,0.0,40,0.0494364406495536
48,2.3919328000010864,0.05,8.09,0.0,40,0.05056460317756348
49,2.4401094000004377,0.05,7.77,0.0,40,0.04946877341367853
50,2.4881101999999373,0.05,8.09,0.0,40,0.050460804688819486
51,2.5367255000001023,0.05,8.09,0.0,40,0.04964864380350827
52,2.586052000000564,0.05,8.64,0.0,40,0.05020164104211507
53,2.6468527000015456,0.05,7.99,0.0,40,0.0499887354330943
54,2.6948322000007465,0.05,8.64,0.0,40,0.04978078659431466
55,2.740162700001747,0.05,8.09,0.0,40,0.05048816689060356
56,2.7877086000007694,0.05,7.55,0.0,40,0.04920720765512304
57,2.833454300000085,0.05,8.2,0.0,40,0.051129001040704954
58,2.896891100001085,0.05,8.09,0.0,40,0.048508680733968586
59,2.942593300000226,0.05,8.31,0.0,40,0.051872800938560885
60,2.989143200000399,0.05,7.99,0.0,40,0.0477350423162525
61,3.036119000000326,0.05,8.53,0.0,40,0.05265771180762661
62,3.096253500001694,0.05,7.99,0.0,40,0.0469606221307206
63,3.1427850000000035,0.05,8.53,0.0,40,0.05339667870202451
64,3.1891494000010425,0.05,7.99,0.0,40,0.04628519827672322
65,3.236153900001227,0.05,7.55,0.0,40,0.053977501186338706
66,3.2987835000003543,0.05,8.2,0.0,40,0.04583274836054817
67,3.345593200001531,0.05,8.53,0.0,40,0.054265457245398906
68,3.392252700001336,0.05,7.99,0.0,40,0.04574727924239512
69,3.4380006000010326,0.05,7.55,0.0,40,0.05410917482720363
70,3.4855096000010235,0.05,8.2,0.0,40,0.04618512308568127
71,3.5328212000003987,0.05,7.66,0.0,40,0.053350267384368426
72,3.5785842000004777,0.05,8.09,0.0,40,0.047303311619881404
73,3.625760500000979,0.05,7.99,0.0,40,0.051836958772044056
74,3.672745500000019,0.05,8.53,0.0,40,0.04924400209017141
75,3.7190263000011328,0.05,7.99,0.0,40,0.04944148804088445
76,3.782049100000222,0.05,8.53,0.0,40,0.05211543784939075
77,3.827741100001731,0.05,7.99,0.0,40,0.04608050064610136
78,3.874123100000361,0.05,8.53,0.0,40,0.055970583207478886
79,3.921992300000056,0.05,7.99,0.0,40,0.04173690717178779
80,3.967951700000413,0.05,8.53,0.0,40,0.060785360270221564
81,4.013767100001132,0.05,7.99,0.0,40,0.036480848283733186
82,4.060958000000028,0.05,7.55,0.0,40,0.06643930124115427
83,4.108657400000084,0.05,7.99,0.0,40,0.030486489003283226
84,4.15567380000175,0.05,7.66,0.0,40,0.07270235910747658
85,4.202344700001049,0.05,8.2,0.0,40,0.02404044068043528
86,4.250303100001474,0.05,7.77,0.0,40,0.07923251870794623
87,4.294707000000926,0.05,8.2,0.0,40,0.017536758586974323
88,4.34242070000073,0.05,7.66,0.0,40,0.08558962734628695
89,4.388845000001311,0.05,8.31,0.0,40,0.011452785016206828
90,4.436119300000428,0.05,7.88,0.0,40,0.09127141667846962
91,4.482885200000965,0.05,8.2,0.0,40,0.006299706690238403
92,4.532862700001715,-0.73,7.99,0.0,40,-0.6842222728307997
93,4.577291700001297,-0.73,8.64,0.0,40,-0.7774562924033258
94,4.622180500000468,-0.73,9.08,0.0,68,-0.681301067443476
95,4.683329100000265,-0.73,8.09,0.0,68,-0.7794794762721489
96,4.731943100001445,-0.73,9.73,0.0,68,-0.6802170569759038
97,4.779458900000464,0.21,8.2,0.0,68,0.1603938244823352
98,4.825923400001557,0.21,8.75,0.0,35,0.25895810231800576
99,4.873895300001095,0.21,8.31,0.0,35,0.1621414815844771
100,4.9217863000012585,0.21,8.42,0.0,35,0.2563353811382344
101,4.968592700000954,0.21,8.31,0.0,35,0.16557827135639475
102,5.015286500000002,0.21,8.31,0.0,35,0.2521530980734842
103,5.062325200000487,0.21,8.2,0.0,35,0.1704343560488065
104,5.108232600001429,0.21,8.31,0.0,35,0.24669492811706406
105,5.155347500000062,0.21,8.2,0.0,35,0.17642465289100048
106,5.2169427000008,0.21,8.31,0.0,35,0.2402401580408969
107,5.264036000000488,0.21,8.2,0.0,35,0.18327794028780428
108,5.312114400001519,0.21,8.09,0.0,35,0.23305428188555855
109,5.358962400001474,0.21,8.09,0.0,35,0.19072786761429542
110,5.406566100000418,-0.55,8.09,0.0,35,-0.5345852317023468
111,5.453332600000067,-0.56,8.2,0.0,62,-0.5715264158658413
112,5.500692400000844,-0.56,8.09,0.0,62,-0.5523439114729055
113,5.54836510000132,-0.56,9.4,0.0,62,-0.5638557567981803
114,5.595001700001376,-0.56,8.42,0.0,62,-0.5598221855622514
115,5.642086700001528,-0.56,8.86,0.0,62,-0.5566724931263678
116,5.689305800000511,-0.56,8.31,0.0,62,-0.5666146604471828
117,5.738688100000218,-0.56,9.18,0.0,62,-0.5503546971602781
118,5.799023300000044,0.2,8.75,0.0,38,0.18760932035460792
119,5.843422000001738,0.2,8.53,0.0,38,0.2148332059858334
120,5.905326100000821,0.2,9.08,0.0,35,0.18303361553507042
121,5.953608300000269,0.2,8.53,0.0,35,0.2187931021402385
122,6.000171300000147,0.2,8.42,0.0,35,0.17967675341903505
123,6.046683600001416,0.2,8.42,0.0,35,0.22157139588237096
124,6.092098300001453,0.2,8.31,0.0,35,0.17744520887527912
125,6.139126500000202,0.2,8.42,0.0,35,0.22329161470838876
126,6.184807300000102,0.2,8.31,0.0,35,0.17620040626070624
127,6.232273600000553,0.2,8.31,0.0,35,0.22409494362399324
128,6.278299600000537,0.2,8.2,0.0,35,0.17580833672043014
129,6.325762100001157,0.2,8.2,0.0,35,0.22410118986683356
130,6.388115700001436,0.2,8.09,0.0,35,0.17616758230265495
131,6.435698200000843,0.2,8.2,0.0,35,0.22339208291572726
132,6.483382000000347,0.2,8.2,0.0,35,0.1772144873161471
133,6.531154600001173,0.2,7.99,0.0,35,0.22201773485827067
134,6.578492300001017,0.2,7.99,0.0,35,0.17890505847201207
135,6.625129500000185,-0.47,7.99,0.0,35,-0.44997386196433364
136,6.6717213000010815,-0.55,7.99,0.0,35,-0.5688243480375287
137,6.734099600000263,-0.55,7.99,0.0,61,-0.5324933593512303
138,6.78159450000021,-0.55,7.88,0.0,61,-0.5660930586210717
139,6.830180599999949,-0.55,7.88,0.0,61,-0.5353947744661358
140,6.876835800001572,-0.55,7.88,0.0,61,-0.5630651539847447
141,6.924065800001699,-0.55,7.77,0.0,61,-0.5385056833048655
142,6.970928900000217,-0.55,7.77,0.0,61,-0.5599129391414037
143,7.017546100001709,-0.55,7.77,0.0,61,-0.5416605094677307
144,7.066250700001547,-0.55,7.66,0.0,62,-0.5567903494717112
145,7.111976600001071,-0.55,7.66,0.0,62,-0.5447203795331816
146,7.16028500000175,-0.55,7.66,0.0,62,-0.5538190775371417
147,7.206421500000943,-0.55,7.66,0.0,62,-0.5475817884737593
148,7.256217800000741,-0.55,7.55,0.0,62,-0.551084358274009
149,7.301534800000809,-0.55,7.55,0.0,62,-0.550177114454199
150,7.350386900001467,-0.55,7.55,0.0,62,-0.5486374174975711
151,7.40983530000085,-0.55,7.55,0.0,62,-0.5524699235469547
152,7.456074100000478,-0.55,7.44,0.0,62,-0.5465017228499105
153,7.502058500000203,-0.55,7.33,0.0,62,-0.5544478246492229
154,7.58068590000039,-0.55,7.44,0.0,62,-0.5446803942884182
155,7.628066700001,-0.55,7.33,0.0,62,-0.5561153871959263
156,7.674809900001492,-0.55,7.33,0.0,62,-0.5431624012261878
157,7.721260199999961,-0.55,7.33,0.0,62,-0.5574893485888306
158,7.769333000000188,-0.55,7.22,0.0,62,-0.5419254689158159
159,7.847419800000352,-0.55,7.22,0.0,62,-0.5585980380180835
160,7.910116700000799,-0.55,7.22,0.0,62,-0.5409339173759122
161,7.956627600000502,-0.55,7.22,0.0,62,-0.5594866458728313
162,8.002967100001115,-0.55,6.9,0.0,62,-0.5401299471309904
163,8.05092490000061,-0.55,8.2,0.0,62,-0.5602296865945373
164,8.0980055,-1.31,9.29,0.0,88,-1.2994173350865612
165,8.148632899999939,-1.31,8.97,0.0,88,-1.3209497644226615
166,8.193024200001673,-1.31,9.84,0.0,89,-1.2986463061884643
167,8.23948140000175,-1.31,8.86,0.0,89,-1.3218157223301907
168,8.28762210000059,-0.47,8.64,0.0,89,-0.4576482281879365
169,8.350335500001165,-0.38,8.2,0.0,57,-0.392969478083305
170,8.396174700001211,-0.38,8.53,0.0,57,-0.3663326779335142
171,8.441979600000195,-0.38,8.2,0.0,56,-0.39443573188126685
172,8.489172400000825,-0.38,9.08,0.0,56,-0.36474083273238284
173,8.536712400000397,-0.38,8.53,0.0,56,-0.3961185053322053
174,8.583368800000244,-0.38,8.42,0.0,56,-0.36300637492954646
175,8.630545100000745,0.38,9.51,0.0,30,0.3621339562367949
176,8.677416400001675,0.39,8.75,0.0,30,0.40872089807011414
177,8.723305100000289,0.39,8.64,0.0,30,0.37045261057269613
178,8.769364300000234,0.39,8.64,0.0,29,0.4103377187307665
179,8.831460600000355,0.39,8.64,0.0,29,0.36891457381791526
180,8.880168700001377,0.39,8.64,0.0,29,0.4117838592922577
181,8.92663470000116,0.39,8.09,0.0,29,0.36757504791966195
182,8.975399000000834,0.39,8.42,0.0,29,0.4129983243826697
183,9.02210120000018,0.39,8.42,0.0,29,0.3665092881997588
184,9.083088000001226,0.39,8.42,0.0,29,0.4138857359141576
185,9.129762000000484,0.39,8.31,0.0,29,0.3658359766626185
186,9.17765640000107,0.39,8.31,0.0,29,0.41430368090471476
187,9.2222483000005,0.39,8.2,0.0,29,0.36571886721089775
188,9.269523900000422,0.39,8.2,0.0,29,0.41407232352924433
189,9.3312515000016,0.39,8.09,0.0,29,0.36634571117299075
190,9.379089500000193,0.39,8.09,0.0,29,0.4130070935018186
191,9.424425000001063,0.39,8.09,0.0,29,0.36788386683007107
192,9.472768900001029,-0.38,8.09,0.0,29,-0.35902538990655347
193,9.520502000001215,-0.38,8.09,0.0,56,-0.3995854412900108
194,9.566654300000664,-0.38,7.99,0.0,56,-0.36203832960246063
195,9.613527700001214,-0.38,7.99,0.0,56,-0.3961253659676845
196,9.660668100001203,-0.38,7.99,0.0,56,-0.3658940999100835
197,9.70768980000139,-0.38,7.88,0.0,56,-0.3919383148047126
198,9.754932000001643,-0.38,7.99,0.0,56,-0.37033806831444904
199,9.833153300000047,-0.38,7.88,0.0,56,-0.38731917427249896
200,9.896627300000546,-0.38,7.88,0.0,56,-0.37504542916306144
201,9.941671000000497,-0.38,7.77,0.0,56,-0.38261390333822165
202,9.987832000000708,-0.38,7.77,0.0,56,-0.3796565325519806
203,10.03583300000173,-0.38,7.77,0.0,56,-0.37818940820050595
204,10.082202800000232,-0.38,7.77,0.0,56,-0.38380290380338006
205,10.12822270000106,-0.38,7.66,0.0,57,-0.374410510357156
206,10.17531780000172,-0.38,7.77,0.0,57,-0.38712840501946383
207,10.22243730000082,-0.38,7.55,0.0,57,-0.3716195613050832
208,10.26870510000117,-0.38,7.66,0.0,57,-0.3893098931189638
209,10.315377400000216,-0.38,7.55,0.0,57,-0.3701145297928154
210,10.36260940000102,-0.38,7.55,0.0,57,-0.39008128090530036
211,10.40983210000013,-0.38,7.55,0.0,57,-0.37012200767847026
212,10.458058200001688,-0.38,7.44,0.0,57,-0.38926412088858714
213,10.504803800000444,-0.38,7.44,0.0,57,-0.3717625256835314
214,10.549900300000443,-0.38,7.44,0.0,57,-0.3868067391174486
215,10.597091600000567,-1.14,7.44,0.0,57,-1.1350069762535817
216,10.644946100001109,-1.15,7.33,0.0,57,-1.1528306218212387
217,10.692601100001411,-1.15,7.55,0.0,84,-1.1496339195897036
218,10.73993270000028,-1.15,8.75,0.0,84,-1.1476555580735561
219,10.786219400000846,-1.15,7.88,0.0,84,-1.1552386567044757
220,10.832993900001384,-1.15,8.97,0.0,84,-1.1417482069787048
221,10.879810700000236,-1.15,9.73,0.0,84,-1.1613202804301268
222,10.926503200000298,-1.15,9.73,0.0,84,-1.1356144871546054
223,10.974516300000689,-0.11,8.42,0.0,84,-0.1273974914533526
224,11.020393900000272,-0.11,8.64,0.0,47,-0.08968259591257159
225,11.08215200000086,-0.11,8.64,0.0,47,-0.13311795143609934
226,11.128245800000514,-0.11,8.09,0.0,47,-0.08421853455092812
227,11.18832040000052,-0.11,8.09,0.0,47,-0.13829709971900178
228,11.250840900000185,-0.11,8.42,0.0,48,-0.07934187722947875
229,11.29792980000093,-0.11,9.08,0.0,48,-0.14285960177038848
230,11.360317399999984,-0.11,9.08,0.0,48,-0.07510348516572563
231,11.406865500001004,-0.11,8.42,0.0,48,-0.14676232777604054
232,11.45359980000103,-0.11,8.53,0.0,48,-0.0715519312807451
233,11.502650700000231,-0.11,8.53,0.0,48,-0.14994193147206722
234,11.565804700001536,-0.11,8.42,0.0,48,-0.0687705640618976
235,11.60933120000118,-0.11,9.62,0.0,48,-0.15229417106667154
236,11.65521810000064,-0.11,9.18,0.0,48,-0.06688085710140608
237,11.70162640000126,0.7,9.73,0.0,48,0.6563114453767268
238,11.748293200000262,0.79,8.53,0.0,16,0.833989286110288
239,11.795849400001316,0.79,8.86,0.0,16,0.7459887915761781
240,11.842508700001416,0.79,8.86,0.0,16,0.8337464487654647
241,11.889463000001342,0.79,8.75,0.0,16,0.7468114272887857
242,11.938321900001029,0.79,8.75,0.0,16,0.832332346977356
243,11.983646900000169,0.79,8.75,0.0,16,0.7488258144510055
244,12.0313782000012,0.79,8.64,0.0,16,0.8297132492414934
245,12.07647840000027,0.79,8.64,0.0,16,0.7520468143648006
246,12.13743390000127,-0.14,8.53,0.0,16,-0.10409572923281453
247,12.183864200000244,-0.14,8.64,0.0,48,-0.17358504641793618
248,12.231749200000197,-0.14,8.53,0.0,48,-0.10897767864200994
249,12.27924090000124,-0.14,8.53,0.0,48,-0.1682495056052191
250,12.325942900000882,-0.14,8.53,0.0,48,-0.11469565228900618
251,12.372441200001049,-0.14,8.53,0.0,48,-0.16222692046600615
252,12.41961370000172,-0.14,8.42,0.0,48,-0.12094196572185058
253,12.466773300000568,-0.14,8.42,0.0,48,-0.1558380338837267
254,12.513399299999946,-0.14,8.31,0.0,48,-0.1273940679488497
255,12.55992900000092,-0.14,8.31,0.0,48,-0.1493988325409994
256,12.606209300000046,-0.14,8.31,0.0,48,-0.1337484062054375
257,12.654538200000388,-0.14,8.2,0.0,48,-0.1431966846178636
258,12.700298900001144,-0.14,8.09,0.0,48,-0.13973581651665024
259,12.747046800001044,-0.14,8.2,0.0,48,-0.1374818739549637
260,12.79372450000119,-0.14,8.2,0.0,48,-0.14512460988047934
261,12.8543621000008,-0.14,8.2,0.0,48,-0.13246836774291426
262,12.90125690000059,-0.14,7.99,0.0,48,-0.1497174408706458
263,12.963289000001168,-0.14,8.09,0.0,48,-0.12833787231297966
264,13.010282900000677,-0.14,7.99,0.0,48,-0.15334770177700788
265,13.058216500001436,-0.14,8.09,0.0,48,-0.12524169280641473
266,13.106097800000498,-0.14,7.99,0.0,48,-0.15588061526260705
267,13.152461000001496,-0.14,7.88,0.0,48,-0.12329558325780529
268,13.20021380000071,-0.14,7.88,0.0,48,-0.15722343515359677
269,13.25123320000057,-0.14,7.77,0.0,49,-0.12256362176204455
270,13.309737500001576,-0.14,7.88,0.0,49,-0.15734823999913222
271,13.356930600000853,-0.92,7.88,0.0,49,-0.9030283241379671
272,13.418182600000364,-1.01,7.77,0.0,49,-1.0263277342207504
273,13.465594500001316,-1.01,7.88,0.0,79,-0.9945548980349366
274,13.51286590000018,-1.01,7.77,0.0,79,-1.024357965430697
275,13.559184300000195,-1.01,8.09,0.0,79,-0.9968965959339186
276,13.621152100000472,-1.01,7.77,0.0,79,-1.0217189382522152
277,13.667515800001638,-1.01,8.09,0.0,79,-0.9997596850366153
278,13.713085000001229,-1.01,8.31,0.0,79,-1.0186994912235674
279,13.760964400000375,-1.01,8.53,0.0,79,-1.0028772052950625
280,13.822768900001392,-1.01,10.06,0.0,79,-1.0155292393401647
281,13.868716900000436,-0.23,8.97,0.0,79,-0.2260708418365331
282,13.914730000000418,-0.23,9.62,0.0,52,-0.23232387102626825
283,13.961646600000677,-0.23,8.64,0.0,52,-0.2292927101661434
284,14.007885300001362,-0.23,8.64,0.0,52,-0.22906943698791576
285,14.055093599999964,-0.23,8.53,0.0,52,-0.23259907420339476
286,14.103740800001106,0.61,8.53,0.0,22,0.6143025628574459
287,14.14927390000048,0.62,8.86,0.0,22,0.6139631859849048
288,14.21038580000095,0.62,8.75,0.0,22,0.6277876362687601
289,14.25804160000007,0.62,8.75,0.0,22,0.6104685425057575
290,14.305571500000951,0.62,8.75,0.0,22,0.631236986846802
291,14.35308040000018,0.62,8.75,0.0,22,0.6071328171774344
292,14.414913400001751,0.62,8.64,0.0,22,0.6343813634491527
293,14.462857800001077,0.62,8.53,0.0,22,0.6042625134961945
294,14.50826000000052,0.62,8.64,0.0,22,0.6368946240942495
295,14.556793500001731,0.62,8.53,0.0,22,0.6021843458418636
296,14.60300140000072,-0.16,8.53,0.0,22,-0.14152999630656105
297,14.65064860000166,-0.17,8.53,0.0,50,-0.18883572186679867
298,14.697160900001109,-0.17,8.53,0.0,50,-0.1511000205952524
299,14.744222200000875,-0.17,8.42,0.0,50,-0.18865801585209493
300,14.806068400001095,-0.17,8.53,0.0,50,-0.15188853312486517
301,14.854483600000094,-0.17,8.31,0.0,50,-0.18726680205824853
302,14.901154000001045,-0.17,8.42,0.0,50,-0.1538659546240726
303,14.947841200000768,-0.17,8.31,0.0,50,-0.18472576772187876
304,15.009110000000874,-0.17,8.31,0.0,50,-0.15694366123936523
305,15.056348900001469,-0.17,8.2,0.0,50,-0.181141421015444
306,15.105253800000355,-0.17,8.2,0.0,50,-0.1610023150628122
307,15.181418699999996,-0.17,8.2,0.0,50,-0.17664271974273046
308,15.228653800000757,-0.17,8.09,0.0,50,-0.165904888910333
309,15.274601600000096,-0.17,8.09,0.0,50,-0.17137465318541137
310,15.322304200000872,-0.17,8.09,0.0,50,-0.17149734027214641
311,15.369920600000114,-0.17,7.99,0.0,50,-0.16550233515906843
312,15.41709510000146,-0.17,7.99,0.0,50,-0.17760083489770379
313,15.464912300001744,-0.17,7.99,0.0,50,-0.15922128256941348
314,15.512185200001111,-0.17,7.99,0.0,50,-0.18400023539965202
315,15.558918800001264,-0.17,7.88,0.0,50,-0.152768812461767
316,15.604482500000811,-0.17,7.88,0.0,50,-0.19043423257064196
317,15.65122380000139,-0.17,7.88,0.0,50,-0.14643091354955948
318,15.698032900001635,-0.17,7.77,0.0,50,-0.19659298133167097
319,15.745560500001377,-0.17,7.77,0.0,50,-0.1405385654717803
320,15.791167300001687,-0.17,7.77,0.0,50,-0.20212937465195133
321,15.837828900001114,-0.17,7.66,0.0,50,-0.1354473295858009
322,15.883672700001624,-0.17,7.66,0.0,50,-0.20669010520559944
323,15.93138060000092,-0.95,7.66,0.0,77,-0.911494347821233
324,15.993132000001424,-0.95,7.66,0.0,77,-0.9899703448127521
325,16.05325240000093,-0.95,8.09,0.0,77,-0.9089371517042296
326,16.117173000000548,-0.95,9.29,0.0,77,-0.9917687590090819
327,16.163996000001134,-0.95,9.73,0.0,77,-0.9079204190926257
328,16.22606630000155,-0.95,8.64,0.0,78,-0.9919921366556975
329,16.272989800001596,-0.95,8.75,0.0,78,-0.9084913904868176
330,16.320015799999965,-0.95,8.42,0.0,78,-0.9906372206545254
331,16.369447900000523,-0.95,9.95,0.0,78,-0.9106064593738048
332,16.41572510000151,0.04,10.27,0.0,78,0.0021978075745607978
333,16.461085600001752,0.04,8.75,0.0,43,0.07589799210917414
334,16.50815320000038,0.04,9.08,0.0,43,0.006274667976216189
