,time,angle,pressure,set_point,motor_speed,Filtered_angle
0,0.0635975999903166,-0.05,6.68,0.0,47,-0.02168404803625126
1,0.1093697999895084,-0.05,6.57,0.0,47,-0.10680566006479143
2,0.1572695999930147,-0.82,6.57,0.0,47,-0.19146475583953076
3,0.2185269999899901,-0.9,5.81,0.0,56,-0.27483740105617355
4,0.2655397999915294,-0.9,7.22,0.0,56,-0.3561797059857767
5,0.3118885999865597,-0.9,6.68,0.0,56,-0.4348530988830969
6,0.3586520999961067,-0.9,6.68,0.0,56,-0.510341767850876
7,0.4038778999965871,-0.9,7.44,0.0,56,-0.5822621179979818
8,0.4519703999976627,-0.9,6.9,0.0,56,-0.6503651374952322
9,0.4991149999987101,-0.9,6.35,0.0,56,-0.7145327972153976
10,0.5590749999973923,-0.9,7.55,0.0,56,-0.7747695749039267
11,0.6206296999880578,-0.9,6.13,0.0,56,-0.8311901382513819
12,0.6683402999915415,-0.9,6.57,0.0,56,-0.8840041627742485
13,0.7295770999917295,-0.9,6.02,0.0,56,-0.9334992018768462
14,0.7916610999964178,-0.9,6.46,0.0,56,-0.9800224695065013
15,0.8357579999865266,-0.9,7.55,0.0,56,-1.0239623418494685
16,0.8833245999994688,-0.9,7.11,0.0,56,-1.0657303347181712
17,0.9458398999995552,-0.9,6.13,0.0,57,-1.1057442685551546
18,0.9941877999954158,-0.9,6.9,0.0,57,-1.1444132939570317
19,1.0411421999888262,-0.9,6.68,0.0,57,-1.1821254176679967
20,1.0866559999994934,-0.9,7.55,0.0,57,-1.2192381422241985
21,1.133944999994128,-0.9,6.79,0.0,57,-1.2560728117439983
22,1.1927550999971572,-0.9,6.24,0.0,57,-1.2929132414687705
23,1.240662699987297,-1.66,6.57,0.0,64,-1.3300090185423945
24,1.2872215999959735,-1.66,6.13,0.0,64,-1.3675829538722768
25,1.3313746999920113,-1.66,7.66,0.0,64,-1.4058405392205569
26,1.3791865999955917,-1.66,6.57,0.0,65,-1.4449783642561105
27,1.426250299991807,-1.66,7.11,0.0,65,-1.485189358371276
28,1.4745130999945104,-1.66,7.11,0.0,65,-1.5266643577570957
29,1.5348696000000928,-1.66,7.55,0.0,65,-1.5695904145674977
30,1.5809161999932255,-1.66,7.22,0.0,65,-1.614146461891277
31,1.6275756999966688,-1.66,7.11,0.0,65,-1.6604969674235888
32,1.6770251999987522,-1.66,7.55,0.0,65,-1.7087842306986616
33,1.7241423999948893,-1.66,6.57,0.0,65,-1.7591200033662058
34,1.77175649999117,-1.66,7.0,0.0,65,-1.81157713903013
35,1.8161282999935795,-1.66,7.88,0.0,65,-1.8661820082749114
36,1.8640449999948032,-1.66,7.33,0.0,65,-1.9229084452181182
37,1.9284615999931705,-1.66,8.09,0.0,65,-1.9816740236643922
38,1.9878269999899203,-1.66,7.55,0.0,65,-2.0423394930072956
39,2.03440549998777,-1.66,8.2,0.0,66,-2.1047122356584773
40,2.081855500000529,-2.53,7.0,0.0,66,-2.168554431419208
41,2.1285107000003336,-2.54,8.42,0.0,75,-2.2335956064327243
42,2.191711799998302,-2.54,8.42,0.0,75,-2.29954739727717
43,2.2514168999914546,-2.54,8.42,0.0,75,-2.366117327654588
44,2.314097899987246,-2.54,7.11,0.0,75,-2.4330194349769836
45,2.359773899996071,-2.54,7.0,0.0,75,-2.4999814704841556
46,2.451701599988155,-2.54,7.55,0.0,75,-2.5667494610797714
47,2.496952299989061,-2.54,8.53,0.0,75,-2.633090644894432
48,2.544052099998225,-2.54,7.11,0.0,76,-2.6987957960760305
49,2.5912161999876844,-2.54,7.66,0.0,76,-2.763681951596801
50,2.638266699999804,-2.54,8.53,0.0,76,-2.827596546644959
51,2.685915899986867,-3.28,8.2,0.0,76,-2.890423779951664
52,2.731831499986584,-3.36,8.64,0.0,84,-2.9520931200523077
53,2.7791005999897607,-3.36,7.33,0.0,84,-3.012588171448396
54,2.826560299989069,-3.36,9.08,0.0,84,-3.0719530532829395
55,2.8747170999995437,-3.36,9.08,0.0,85,-3.130294210328678
56,2.920689999999013,-3.36,8.31,0.0,85,-3.187777236588805
57,2.966859799998929,-3.36,7.66,0.0,85,-3.244619325652095
58,3.0144231999875046,-3.36,9.51,0.0,85,-3.301078217937784
59,3.06198339999537,-3.36,9.29,0.0,85,-3.357438521503859
60,3.1101443999941694,-3.36,8.09,0.0,85,-3.4139962737997567
61,3.173002199997427,-3.36,9.4,0.0,86,-3.471042606218083
62,3.218401799997082,-3.36,8.31,0.0,86,-3.5288473719283844
63,3.2660884999932023,-3.36,8.53,0.0,86,-3.587643600422843
64,3.313725599989993,-3.36,8.09,0.0,86,-3.6476136493939495
65,3.361774099990725,-3.36,8.31,0.0,86,-3.7088779356836308
66,3.407805799986818,-3.36,8.53,0.0,87,-3.771487141551293
67,3.4677983000001404,-3.36,8.75,0.0,87,-3.8354188096636204
68,3.5159302999963984,-4.19,9.4,0.0,87,-3.900579061874827
69,3.564375199988717,-4.19,10.06,0.0,87,-3.966809210327539
70,3.609918099988136,-4.19,8.86,0.0,96,-4.033895273605019
71,3.6698769999929937,-4.19,8.86,0.0,96,-4.1015774424463345
72,3.73638149999897,-4.19,9.4,0.0,96,-4.169557541349699
73,3.7795216999948025,-4.19,9.29,0.0,96,-4.237504319989295
74,3.825467299990123,-4.19,9.29,0.0,96,-4.3050574031659465
75,3.8871695999987423,-4.19,9.29,0.0,96,-4.371830929396536
76,3.9365999000001466,-4.19,9.4,0.0,97,-4.437417907407246
77,3.982711399992695,-4.19,10.27,0.0,97,-4.501396313519548
78,4.043998999986798,-4.19,11.04,0.0,97,-4.563337940825935
79,4.092438599996967,-5.04,10.6,0.0,97,-4.622820790855999
80,4.136682699987432,-5.04,10.06,0.0,106,-4.679444763972924
81,4.182956699994975,-5.04,9.95,0.0,106,-4.732848555959295
82,4.231247399991844,-5.04,10.17,0.0,107,-4.782724621173921
83,4.277849399994011,-5.04,11.15,0.0,107,-4.828830029555519
84,4.327815500000725,-5.04,10.82,0.0,107,-4.8709928142617445
85,4.370606299999054,-5.04,10.27,0.0,107,-4.909114363741193
86,4.418023999998695,-5.04,10.49,0.0,107,-4.943168557475525
87,4.479937500000233,-5.04,11.47,0.0,108,-4.973198285495096
88,4.5267782999872,-5.04,10.71,0.0,108,-4.999309931129959
89,4.589388299995335,-5.04,10.49,0.0,108,-5.021666335381249
90,4.633909399999538,-5.04,10.71,0.0,108,-5.040478700811981
91,4.697411799992551,-5.04,10.93,0.0,109,-5.055997833909286
92,4.741864199997508,-5.04,11.04,0.0,109,-5.068505068308431
93,4.793901599987294,-5.04,11.8,0.0,109,-5.0783031578204705
94,4.850399299990386,-5.04,11.26,0.0,109,-5.085707378468514
95,4.8997452999901725,-5.04,11.15,0.0,110,-5.091037033176213
96,4.945377199997893,-5.04,12.13,0.0,110,-5.094607511694159
97,5.005797399993753,-5.04,12.35,0.0,110,-5.096723021990343
98,5.067149899987271,-5.04,12.56,0.0,110,-5.097670077737192
99,5.114640899992082,-5.04,11.47,0.0,111,-5.097711799647959
100,5.16478379999171,-5.04,12.67,0.0,111,-5.097083066087921
101,5.210173499988741,-5.04,12.89,0.0,111,-5.095986530351051
102,5.256363899999997,-5.04,11.91,0.0,111,-5.09458950790443
103,5.303163099990343,-5.04,13.0,0.0,112,-5.0930217263410045
104,5.349210499989567,-5.04,12.13,0.0,112,-5.091373923266104
105,5.39919289998943,-5.04,11.91,0.0,112,-5.0896972723469
106,5.444751399991219,-5.04,12.02,0.0,112,-5.088003614714621
107,5.491540199989686,-5.04,13.33,0.0,112,-5.086266471243354
108,5.53661879998981,-5.04,12.24,0.0,113,-5.084422810344126
109,5.584463999999571,-5.04,13.33,0.0,113,-5.082375545219362
110,5.645759799997904,-5.04,13.44,0.0,113,-5.079996733446617
111,5.694332999992184,-5.04,13.54,0.0,113,-5.077131449754077
112,5.741884499992011,-5.04,13.44,0.0,114,-5.073602299403796
113,5.788468099999591,-5.04,12.89,0.0,114,-5.069214534250348
114,5.836077499989187,-5.04,12.56,0.0,114,-5.063761725889544
115,5.882759899992379,-5.04,13.76,0.0,114,-5.057031940019129
116,5.929399000000558,-5.04,13.65,0.0,115,-5.048814342943324
117,5.991811399988364,-5.04,12.78,0.0,115,-5.038906154893942
118,6.040530599988415,-5.04,13.33,0.0,115,-5.027119845433399
119,6.087678899988532,-5.04,12.89,0.0,115,-5.013290443670267
120,6.148721399993519,-5.04,13.98,0.0,115,-4.997282810480981
121,6.210606299995561,-5.04,13.0,0.0,116,-4.978998691625203
122,6.257893099987996,-5.04,13.44,0.0,116,-4.958383339909755
123,6.305350599999656,-5.04,14.42,0.0,116,-4.935431461847959
124,6.357795999996597,-5.04,13.33,0.0,116,-4.910192210133757
125,6.403947999991942,-5.04,13.33,0.0,117,-4.882772908356892
126,6.451589899996179,-5.04,14.53,0.0,117,-4.853341159467936
127,6.4984922999865375,-5.04,13.44,0.0,117,-4.822124955373387
128,6.543515099998331,-5.04,14.74,0.0,117,-4.789410372567806
129,6.590886199992383,-5.04,14.96,0.0,118,-4.755536408785641
130,6.654344700000365,-5.04,13.65,0.0,118,-4.720886489171002
131,6.7158957999927225,-5.04,14.09,0.0,118,-4.685876148269752
132,6.762779699987732,-4.28,13.76,0.0,118,-4.6509365576121136
133,6.824968000000808,-4.28,13.87,0.0,111,-4.616494460209047
134,6.871952399989823,-4.28,13.98,0.0,111,-4.582950693375595
135,6.923688399998355,-4.28,13.87,0.0,112,-4.550660385317555
136,6.970745599988732,-4.28,13.98,0.0,112,-4.519917015191516
137,7.014119799991022,-4.28,15.18,0.0,112,-4.4909409140968855
138,7.060876599993208,-4.28,14.09,0.0,112,-4.463871899829462
139,7.10798079999222,-4.28,13.98,0.0,112,-4.438765580329649
140,7.155672299995786,-4.28,14.09,0.0,112,-4.415592886727991
141,7.218081599989091,-4.28,15.4,0.0,112,-4.394242424943179
142,7.295279399986612,-4.28,15.51,0.0,113,-4.374525263679455
143,7.343187199992826,-4.28,14.2,0.0,113,-4.356181805145684
144,7.388262299995404,-4.28,14.42,0.0,113,-4.33889041165321
145,7.450060199989821,-4.28,14.85,0.0,114,-4.322277485288572
146,7.49819959999877,-4.28,14.31,0.0,114,-4.305928718045506
147,7.544807300000684,-4.28,15.4,0.0,114,-4.289401245211638
148,7.593044599998393,-4.28,14.42,0.0,114,-4.272236444661881
149,7.654233599998406,-4.28,14.85,0.0,114,-4.253973128404176
150,7.69932179999887,-4.28,14.53,0.0,115,-4.234160869826717
151,7.746618299992406,-4.28,14.85,0.0,115,-4.212373200374155
152,7.794422599996324,-4.28,14.74,0.0,115,-4.188220392795979
153,7.857109399992623,-4.28,15.07,0.0,115,-4.161361524825282
154,7.903231599993887,-4.28,14.85,0.0,115,-4.131515487520265
155,7.951097400000435,-4.28,15.29,0.0,115,-4.0984705670844095
156,7.99749109998811,-4.28,14.74,0.0,116,-4.062092188504418
157,8.044935599988094,-4.28,16.05,0.0,116,-4.02232836470115
158,8.090075299987802,-4.28,14.85,0.0,116,-3.9792123471120204
159,8.140033099989523,-4.28,14.96,0.0,116,-3.932861923860645
160,8.185006499988958,-4.28,16.16,0.0,117,-3.883474761144847
161,8.23172519999207,-3.48,14.85,0.0,117,-3.8313193235510616
162,8.278725500000292,-3.48,15.94,0.0,117,-3.776721811239585
163,8.355329699988943,-3.48,14.96,0.0,109,-3.7200512175079345
164,8.417661499988753,-3.48,15.07,0.0,109,-3.661705519319803
165,8.463743999993312,-3.48,15.18,0.0,109,-3.602101026210068
166,8.51062169999932,-3.48,15.18,0.0,110,-3.5416651708368163
167,8.571775799995521,-3.48,15.07,0.0,110,-3.4808320486663424
168,8.619952999986708,-3.48,15.18,0.0,110,-3.420039805161826
169,8.666852199996356,-3.48,15.62,0.0,110,-3.359728956283931
170,8.712943199992878,-3.48,15.29,0.0,110,-3.300340722118608
171,8.761642099998426,-3.48,15.29,0.0,110,-3.242314454096167
172,8.807650199989439,-3.48,16.49,0.0,110,-3.1860832435924027
173,8.855977499988512,-3.48,15.62,0.0,111,-3.1320668137075804
174,8.90242609998677,-2.72,16.16,0.0,111,-3.0806609972537067
175,8.948858899995685,-2.71,15.29,0.0,103,-3.0322240364964217
176,8.996570099989185,-2.71,15.29,0.0,103,-2.987061610884492
177,9.042604199989,-2.71,16.49,0.0,104,-2.9454134626595203
178,9.103727499998058,-2.71,16.27,0.0,104,-2.907443643675025
179,9.150881099994876,-2.71,15.4,0.0,104,-2.873234818528062
180,9.19771849999961,-2.71,15.83,0.0,104,-2.8427861873128326
181,9.25983319999068,-2.71,15.62,0.0,104,-2.816014453847442
182,9.321462399995651,-2.71,15.51,0.0,104,-2.7927573191041972
183,9.369192499987548,-2.71,16.27,0.0,105,-2.772779035826794
184,9.415698699987844,-2.71,16.38,0.0,105,-2.7557776153423887
185,9.463729499999316,-2.71,15.4,0.0,105,-2.7413933301951032
186,9.511037299991584,-2.71,15.51,0.0,105,-2.7292182053418785
187,9.556915499997558,-2.71,15.62,0.0,105,-2.718806235269301
188,9.603458300000057,-2.71,16.71,0.0,105,-2.709684103644335
189,9.65142019999621,-2.71,15.51,0.0,105,-2.701362215277449
190,9.700363099997048,-2.71,15.62,0.0,105,-2.6933458766808553
191,9.746896899989224,-2.71,15.62,0.0,105,-2.6851464809357646
192,9.791964299991378,-2.71,15.72,0.0,106,-2.6762925646948688
193,9.83975919999648,-2.71,15.62,0.0,106,-2.6663406098622837
194,9.887037799999234,-2.71,15.62,0.0,106,-2.654885459903972
195,9.932846099996825,-2.71,15.83,0.0,106,-2.641570211105073
196,9.979482899987488,-2.71,16.81,0.0,106,-2.6260954228271842
197,10.025206299993442,-2.71,15.72,0.0,106,-2.6082274685057993
198,10.073921999995946,-2.71,15.94,0.0,106,-2.587805821491895
199,10.120803699988755,-2.71,16.92,0.0,106,-2.564749037746044
200,10.167214599990984,-2.71,16.27,0.0,106,-2.5390591618272027
201,10.2127393999981,-2.71,15.72,0.0,107,-2.5108242446781257
202,10.258515599998644,-2.71,16.92,0.0,107,-2.4802186225799505
203,10.306013699999312,-2.71,16.27,0.0,107,-2.447500567577863
204,10.353487999993376,-2.71,15.83,0.0,107,-2.4130068819503294
205,10.399999899993418,-2.71,15.72,0.0,107,-2.377143974188309
206,10.461990600000718,-2.71,16.05,0.0,107,-2.340374922709746
207,10.50922689998697,-1.95,16.92,0.0,107,-2.3032021879129143
208,10.557028699986404,-1.94,17.03,0.0,100,-2.266146518360522
209,10.602835499987124,-1.94,15.83,0.0,100,-2.2297242208286057
210,10.64869989998988,-1.94,15.83,0.0,100,-2.194425882407441
211,10.694727099995362,-1.94,15.83,0.0,100,-2.16069874345538
212,10.74243669999123,-1.94,16.05,0.0,100,-2.1289332922713644
213,10.789390599995386,-1.94,16.27,0.0,100,-2.0994537445744985
214,10.83703599999717,-1.94,15.83,0.0,100,-2.072511901656342
215,10.88250569999218,-1.94,15.94,0.0,100,-2.0482839077832224
216,10.927854899986414,-1.94,15.83,0.0,100,-2.0268694613731917
217,10.973038999989512,-1.94,15.94,0.0,100,-2.00829307221084
218,11.020713999998408,-1.94,15.83,0.0,100,-1.9925069973704845
219,11.067045099989627,-1.94,16.05,0.0,101,-1.9793955304551158
220,11.129712999987532,-1.94,16.05,0.0,101,-1.9687803611006531
221,11.17565520000062,-1.94,16.49,0.0,101,-1.9604267633592614
222,11.223036099996534,-1.94,15.94,0.0,101,-1.9540504115404052
223,11.27031709998846,-1.94,15.94,0.0,101,-1.9493246594114275
224,11.31674579999526,-1.94,16.05,0.0,101,-1.9458881524900162
225,11.377671999987797,-1.94,15.94,0.0,101,-1.9433526727499881
226,11.42608289999771,-1.94,15.94,0.0,101,-1.941311139769665
227,11.486066199999186,-1.94,16.05,0.0,101,-1.9393457116535604
228,11.534084299986716,-1.94,15.94,0.0,101,-1.9370359425464627
229,11.595919100000174,-1.94,16.05,0.0,101,-1.9339669609485761
230,11.643064299991238,-1.94,16.38,0.0,102,-1.9297376341681742
231,11.692860999988625,-1.94,16.38,0.0,102,-1.9239686790748738
232,11.73804939999536,-1.94,16.38,0.0,102,-1.916310667926746
233,11.785860299991327,-1.94,16.16,0.0,102,-1.9064518606463556
234,11.83084689998941,-1.94,16.16,0.0,102,-1.8941257718454931
235,11.894685299994308,-1.94,16.16,0.0,102,-1.879118352597887
236,11.94209859998955,-1.94,16.16,0.0,102,-1.861274634003558
237,11.986836500000209,-1.94,16.16,0.0,102,-1.8405046426615315
238,12.034675499991865,-1.94,16.16,0.0,102,-1.8167883580605455
239,12.080838299996683,-1.94,16.16,0.0,102,-1.7901794395003057
240,12.12921689999348,-1.94,16.92,0.0,103,-1.760807406446156
241,12.177316499990413,-1.94,16.92,0.0,103,-1.7288779122474862
242,12.22413219998998,-1.94,16.92,0.0,103,-1.6946707080175614
243,12.271361899998736,-1.94,16.16,0.0,103,-1.6585348523116006
244,12.332193099995491,-1.94,16.16,0.0,103,-1.6208806841822225
245,12.393369400000664,-1.94,17.25,0.0,103,-1.5821680433322634
246,12.442588699996122,-1.17,17.36,0.0,103,-1.5428903754181222
247,12.492793299999905,-1.17,17.36,0.0,95,-1.5035552529018872
248,12.53305790000013,-1.17,16.16,0.0,95,-1.4646634729159465
249,12.59403699998802,-1.17,17.36,0.0,96,-1.4266898000510646
250,12.643130799988285,-1.17,16.81,0.0,96,-1.3900675061491357
251,12.69126089999918,-1.17,16.16,0.0,96,-1.3551772188481803
252,12.736415799998213,-1.17,16.49,0.0,96,-1.3223396892457657
253,12.782376999995904,-1.17,17.25,0.0,96,-1.291811926033425
254,12.828470799999195,-1.17,16.27,0.0,96,-1.263786169122429
255,12.875829699987662,-1.17,16.27,0.0,96,-1.2383912062815412
256,12.923067999989144,-1.17,16.27,0.0,96,-1.2156955707032793
257,12.968897899991134,-1.17,16.27,0.0,96,-1.1957121947484435
258,13.016564599995036,-1.17,16.16,0.0,96,-1.1784041344458445
259,13.058253899987903,-1.17,16.49,0.0,96,-1.1636910197456076
260,13.10309989999223,-1.17,17.36,0.0,96,-1.1514559262068538
261,13.150019799999429,-1.17,16.38,0.0,96,-1.1415524039938358
262,13.196906299999682,-1.17,17.14,0.0,96,-1.133811439103212
263,13.245347699994454,-1.17,16.49,0.0,96,-1.1280481590950266
264,13.290578299987828,-1.17,16.38,0.0,96,-1.1240681308014622
265,13.337193799990928,-1.17,16.16,0.0,96,-1.1216731301945113
266,13.384077399998205,-1.17,16.38,0.0,96,-1.120666294560695
267,13.431122199996024,-1.17,16.27,0.0,96,-1.1208565942064403
268,13.476834999994026,-1.17,16.38,0.0,96,-1.1220625850371364
269,13.523770299987518,-1.17,17.03,0.0,97,-1.1241154245292118
270,13.571294299996223,-1.17,16.6,0.0,97,-1.1268611519283833
271,13.618414500000654,-1.17,16.92,0.0,97,-1.1301622490959544
272,13.664867299987236,-1.17,17.47,0.0,97,-1.1338985114719962
273,13.712771099992096,-1.17,16.38,0.0,97,-1.1379672693475764
274,13.759820999999649,-1.17,16.27,0.0,97,-1.142283008280148
275,13.807183699987943,-1.17,16.38,0.0,97,-1.1467764443026922
276,13.85454449999088,-1.17,16.27,0.0,97,-1.151393114828079
277,13.902160899990122,-1.17,16.27,0.0,97,-1.1560915500900526
278,13.980277700000444,-1.17,16.38,0.0,97,-1.1608410928326132
279,14.027776899994931,-1.17,16.38,0.0,97,-1.1656194359809642
280,14.089085799991151,-1.17,16.38,0.0,97,-1.1704099493932418
281,14.135805599988087,-1.17,16.49,0.0,97,-1.175198867664148
282,14.196123299989267,-1.17,17.03,0.0,97,-1.1799724114539771
283,14.2429584999918,-1.17,16.38,0.0,97,-1.1847139150341042
284,14.292930499999784,-1.17,17.03,0.0,97,-1.1894010327155993
285,14.338190499998746,-1.17,16.27,0.0,97,-1.1940030965611155
286,14.3877705999912,-1.17,16.92,0.0,98,-1.1984786972285573
287,14.43297259999963,-1.17,17.25,0.0,98,-1.202773558873622
288,14.479899799989653,-1.17,16.38,0.0,98,-1.2068187776230883
289,14.527144199993929,-1.17,17.14,0.0,98,-1.2105294910616957
290,14.590067899989664,-1.17,17.47,0.0,98,-1.2138040432610677
291,14.635507999992114,-1.17,16.38,0.0,98,-1.216523705901845
292,14.681538299992098,-1.17,16.27,0.0,98,-1.2185530107629128
293,14.729387100000167,-1.17,16.27,0.0,98,-1.2197407420252808
294,14.774629299994558,-1.17,16.81,0.0,98,-1.219921628210107
295,14.82259929999418,-1.17,16.38,0.0,98,-1.2189187628934555
296,14.885395199991764,-1.17,16.38,0.0,98,-1.216546770383098
297,14.951336899990563,-1.17,16.38,0.0,98,-1.212615717099536
298,14.992995699998572,-1.17,16.27,0.0,98,-1.2069357513059045
299,15.04107499998645,-1.17,16.92,0.0,98,-1.1993224329592163
300,15.086926899995888,-1.17,16.38,0.0,98,-1.1896026917473943
301,15.131620199987085,-1.17,16.49,0.0,98,-1.1776213248418193
302,15.178845299989916,-1.17,17.14,0.0,98,-1.163247916623042
303,15.225586999993538,-1.17,17.58,0.0,98,-1.1463840308068887
304,15.272187599999596,-1.17,16.6,0.0,98,-1.1269704912858705
305,15.319313100000729,-1.17,17.25,0.0,98,-1.104994531986588
306,15.365321799996307,-1.17,17.69,0.0,99,-1.080496558614953
307,15.412351199993282,-1.17,16.49,0.0,99,-1.0535762269130329
308,15.457920399989234,-1.17,16.49,0.0,99,-1.0243975036854271
309,15.50624699999753,-1.17,17.25,0.0,99,-0.9931923391700878
310,15.552104899994449,-1.17,16.6,0.0,99,-0.9602625432177702
311,15.597668699992935,-1.17,16.49,0.0,99,-0.9259794241679843
312,15.644083999999566,-1.17,16.38,0.0,99,-0.8907807192807444
313,15.691237199993338,-1.17,16.38,0.0,99,-0.8551643201394428
314,15.769212100000004,-1.17,16.6,0.0,99,-0.819678276606798
315,15.830846699987887,-1.17,16.49,0.0,99,-0.7849065496667121
316,15.873551099997712,-0.47,16.38,0.0,99,-0.7514501440348232
317,15.918568099994443,-0.39,16.49,0.0,99,-0.7199041045222156
318,15.96588069999416,-0.39,16.71,0.0,91,-0.6908324633177274
319,16.013990399995237,-0.39,17.58,0.0,91,-0.6647442480917132
320,16.075884599995334,-0.39,17.36,0.0,91,-0.6420729528677657
321,16.12326989999565,-0.39,17.47,0.0,91,-0.6231603184884205
322,16.183875099988654,-0.39,16.49,0.0,91,-0.6082443112176458
323,16.23041189998912,-0.39,17.03,0.0,91,-0.5974509775591283
324,16.27840009999636,-0.39,16.49,0.0,91,-0.5907898903495789
325,16.324929099995643,-0.39,16.49,0.0,91,-0.588152960702434
326,16.371841499989387,-0.39,16.38,0.0,92,-0.5893164517578715
327,16.418518999998923,-0.39,17.03,0.0,92,-0.5939460917071641
