,time,angle,pressure,set_point,motor_speed,Filtered_angle
0,0.0484371999991708,-0.95,7.44,0.0,47,-0.9488365252696448
1,0.095620099998996,-0.95,7.0,0.0,48,-0.9517247114294052
2,0.1424016000000847,-0.95,6.68,0.0,48,-0.951200612166674
3,0.2061052999997628,-0.95,6.46,0.0,48,-0.944330183419444
4,0.252285499998834,-0.95,7.55,0.0,48,-0.9286261308386656
5,0.2985946999997395,-0.95,7.44,0.0,48,-0.9022498138815954
6,0.3604001999992761,-0.95,7.0,0.0,48,-0.8642008507796866
7,0.409680799999478,-0.95,7.44,0.0,48,-0.8144772008513519
8,0.4543282999984512,-0.95,7.55,0.0,48,-0.7541783477480345
9,0.5035525999992387,-0.95,7.55,0.0,48,-0.6855131597430405
10,0.549188699998922,-0.95,6.57,0.0,48,-0.6116630245395739
11,0.596437899999728,-0.18,6.35,0.0,45,-0.5364531403722711
12,0.6426068000000669,-0.18,6.24,0.0,45,-0.4638378705005724
13,0.6900166999985231,-0.18,6.02,0.0,45,-0.3973106817813031
14,0.739747499999794,-0.18,6.02,0.0,45,-0.3394086752820355
15,0.7990831999995862,-0.18,5.91,0.0,45,-0.29142322950506894
16,0.8461645999996108,-0.18,7.33,0.0,45,-0.25332434264818277
17,0.8922719000001962,-0.18,7.44,0.0,45,-0.2238532936465233
18,0.9401511999985814,-0.18,7.55,0.0,45,-0.20073513582866231
19,0.9866093000000546,-0.18,7.55,0.0,45,-0.18097161732083195
20,1.0341023999990284,-0.18,7.22,0.0,45,-0.1611830844656959
21,1.079922599999918,-0.18,7.44,0.0,45,-0.13797380421700015
22,1.1267401999994036,-0.18,7.55,0.0,45,-0.10829824618481673
23,1.1730220999997982,-0.18,7.66,0.0,45,-0.06980582773114136
24,1.2196472999985415,-0.18,7.66,0.0,45,-0.02113843072699247
25,1.2676463999996486,-0.18,7.55,0.0,45,0.037851016825673794
26,1.3264416000001802,-0.18,7.66,0.0,45,0.10599877193315085
27,1.367708699999639,-0.18,7.55,0.0,45,0.18089858303379755
28,1.4142899999988003,0.61,7.66,0.0,45,0.25918433022849835
29,1.4607454999986658,0.62,7.77,0.0,42,0.337019095845137
30,1.508962199999587,0.62,7.77,0.0,42,0.41067586509626947
31,1.5705377999984194,0.62,7.55,0.0,42,0.4770343612193533
32,1.6182739999985642,0.62,7.77,0.0,42,0.5338796980366536
33,1.6689607999996952,0.62,7.66,0.0,42,0.5799977642614461
34,1.7148631000000023,0.62,6.57,0.0,42,0.615119304669909
35,1.7610588999996253,0.62,6.57,0.0,42,0.6397690420679452
36,1.8203042999994068,0.62,6.9,0.0,42,0.6550662017671257
37,1.868375299998661,0.62,7.11,0.0,41,0.6625122826250163
38,1.914431399998648,0.62,7.33,0.0,41,0.6637917868263306
39,1.9616771999990303,0.62,7.77,0.0,41,0.6606024635413289
40,2.0078187999988586,0.62,6.68,0.0,41,0.6545238337026282
41,2.054576599999564,0.62,7.0,0.0,41,0.6469265501729957
42,2.101924399999916,0.62,7.44,0.0,41,0.638920550748914
43,2.147365999999238,0.62,7.88,0.0,41,0.6313368913805749
44,2.194117399998504,0.62,6.68,0.0,41,0.6247364214769575
45,2.241636099999596,0.62,7.22,0.0,41,0.6194378439914745
46,2.2871254999990924,0.62,7.77,0.0,41,0.6155579286096712
47,2.350026499998421,0.62,7.99,0.0,41,0.6130574585201521
48,2.395640699998694,0.62,7.88,0.0,41,0.6117876546590303
49,2.443390799999179,0.62,6.9,0.0,41,0.61153313652311
50,2.4912249999997584,0.62,7.55,0.0,41,0.6120487886613363
51,2.5377694999988307,0.62,7.99,0.0,41,0.6130890937078247
52,2.5831216999995377,0.62,6.79,0.0,41,0.6144294946316469
53,2.645200099999784,0.62,7.33,0.0,41,0.615880125187781
54,2.708010599999397,0.62,7.66,0.0,41,0.61729279206144
55,2.755132499998581,0.62,7.77,0.0,41,0.6185624204013255
56,2.8031696999987616,0.62,7.66,0.0,41,0.6196243163339434
57,2.8626553999984026,0.62,7.44,0.0,41,0.6204485935757857
58,2.9104466999997385,0.62,7.66,0.0,41,0.621032996805765
59,2.9582227999999304,0.62,8.2,0.0,41,0.6213951706542281
60,3.0054007999988244,0.62,7.22,0.0,41,0.6215652039245232
61,3.0546908999986044,0.62,7.66,0.0,41,0.6215790514431623
62,3.09729089999928,0.62,8.09,0.0,41,0.6214732210060668
63,3.143627800000104,0.62,7.33,0.0,41,0.621280923448192
64,3.1905493999984174,0.62,7.99,0.0,41,0.6210297267613398
65,3.254047499998705,0.62,8.2,0.0,41,0.6207406320577815
66,3.302063399998588,0.62,7.11,0.0,41,0.6204283978107566
67,3.3488885999995546,0.62,7.55,0.0,41,0.6201028745559959
68,3.395906099998683,0.62,7.99,0.0,41,0.6197710694101157
69,3.442647199999556,0.62,7.22,0.0,41,0.6194396328025159
70,3.5050446999994165,0.62,7.77,0.0,41,0.6191174443165656
71,3.552892799998517,0.62,8.09,0.0,41,0.6188179679375972
72,3.599002199998722,0.62,7.22,0.0,40,0.6185610490230199
73,3.64744729999984,0.62,7.66,0.0,40,0.6183738380215388
74,3.695594099999653,0.62,7.66,0.0,40,0.6182905535851505
75,3.74073849999877,0.62,8.2,0.0,40,0.618350846030069
76,3.7879467999991903,0.62,7.66,0.0,40,0.618596597621271
77,3.835464099998717,0.62,8.2,0.0,40,0.619067104974848
78,3.88257429999976,0.62,7.66,0.0,40,0.6197927353167
79,3.927955600000132,0.62,8.09,0.0,40,0.6207873334621004
80,4.022294899999906,0.62,8.2,0.0,40,0.6220398764545922
81,4.069304199998442,0.62,7.66,0.0,40,0.6235061178979963
82,4.116124399999535,0.62,7.55,0.0,40,0.6251012169153315
83,4.162590899999486,0.62,7.77,0.0,40,0.6266945822886899
84,4.208704399999988,0.62,7.11,0.0,40,0.6281083478987617
85,4.254425499999343,0.62,7.77,0.0,40,0.629120991791783
86,4.302466399998593,0.62,7.22,0.0,40,0.6294775746021914
87,4.349104899998565,0.62,7.88,0.0,40,0.6289078597787497
88,4.396080900000015,0.62,7.44,0.0,40,0.6271531489690563
89,4.442565499999546,0.62,7.88,0.0,40,0.6240019931408006
90,4.489151699999638,0.62,7.22,0.0,40,0.6193340145791086
91,4.549711899999238,0.62,7.88,0.0,40,0.6131699150054394
92,4.597476999999344,0.62,7.11,0.0,40,0.6057244043782588
93,4.64764009999999,0.62,7.77,0.0,40,0.5974573599044541
94,4.695667599999069,0.62,7.11,0.0,40,0.5891171598926923
95,4.739689399999406,0.62,7.66,0.0,40,0.5817690267278015
96,4.786859199999526,0.62,7.11,0.0,40,0.5768005989980131
97,4.832926699999007,0.62,7.77,0.0,40,0.5758971146693351
98,4.879108899998755,0.62,7.11,0.0,40,0.5809798280657074
99,5.957894600000145,0.62,7.66,10.0,39,0.5941039062336315
100,6.021812099999806,0.62,7.33,10.0,39,0.6173163283558165
101,6.069003399999929,0.62,9.08,10.0,80,0.6524804537898031
102,6.113456099999894,0.62,8.42,10.0,80,0.701082036196175
103,6.162633099998857,0.62,8.64,10.0,81,0.7640415110944012
104,6.2067126000001736,0.62,8.97,10.0,81,0.8415691743712146
105,6.269600699999501,0.62,9.4,10.0,82,0.9331130252486671
106,6.315700799999831,1.4,9.95,10.0,82,1.0374507194740514
107,6.368587099999786,1.4,10.06,10.0,80,1.1529296800041657
108,6.414065299999493,1.4,9.08,10.0,80,1.2777622732729466
109,6.461179599999014,1.4,9.4,10.0,81,1.4102340027247795
110,6.507644399998753,1.4,10.06,10.0,81,1.5487553755960959
111,6.569559300000037,1.4,10.38,10.0,81,1.691808395191551
112,6.6199585999984265,2.09,9.84,10.0,81,1.8378970978936169
113,6.66317589999926,2.17,9.08,10.0,79,1.9855743087199886
114,6.712208199998713,2.17,9.29,10.0,79,2.1335170509968244
115,6.758145299998432,2.17,10.06,10.0,80,2.280560329822358
116,6.805376999998771,2.17,9.51,10.0,80,2.4256488485243217
117,6.867048699999941,2.17,9.62,10.0,80,2.5677709375766327
118,6.913529899999048,3.15,10.27,10.0,81,2.7059885049237047
119,6.9615852999995695,3.16,11.04,10.0,81,2.8396145890754805
120,7.007605199998579,3.16,10.82,10.0,77,2.968448420901926
121,7.0544919999993,3.16,11.26,10.0,77,3.0928953824742713
122,7.101184799999828,3.16,10.06,10.0,78,3.2138715228418175
123,7.150402999999642,3.16,10.17,10.0,78,3.3325278923807065
124,7.197335400000156,3.16,10.17,10.0,79,3.4499046519259284
125,7.243721799999548,3.16,10.38,10.0,79,3.566637830950272
126,7.290238399998998,3.96,10.93,10.0,76,3.682826720052008
127,7.337780399999247,3.97,11.47,10.0,76,3.798105011095364
128,7.385744299999715,3.97,10.49,10.0,76,3.911843328913058
129,7.430996299999606,3.97,10.6,10.0,77,4.023345354451207
130,7.476789299998927,3.97,10.71,10.0,77,4.131960974796678
131,7.523367899999357,3.97,11.8,10.0,77,4.237152724300024
132,7.5715110000001,4.66,10.71,10.0,77,4.338603221401511
133,7.619930299999396,4.73,11.47,10.0,75,4.436406333103635
134,7.663870399999723,4.73,10.93,10.0,75,4.5312781217899
135,7.711549099998592,4.73,11.8,10.0,75,4.624655756231032
136,7.757657299998755,4.73,11.04,10.0,75,4.718598271519269
137,7.804481600000145,4.73,11.15,10.0,75,4.815504168461848
138,7.882428099999743,4.73,12.02,10.0,76,4.917724178239317
139,7.930229499999768,4.73,11.47,10.0,76,5.027164744029727
140,7.991826099998434,4.73,12.56,10.0,76,5.144981832373222
141,8.05518099999972,5.61,12.13,10.0,73,5.271455844502524
142,8.117674699999043,5.61,11.47,10.0,73,5.406075698649292
143,8.163626599998679,5.61,11.47,10.0,74,5.547742965577944
144,8.22456179999972,5.61,11.91,10.0,74,5.694945648947196
145,8.27090379999936,5.61,12.13,10.0,74,5.845828441227067
146,8.318502099999023,5.61,12.46,10.0,74,5.998218101053739
147,8.363174699999945,6.58,11.69,10.0,71,6.149722069047961
148,8.408185099999173,6.58,12.56,10.0,71,6.297959258356491
149,8.455712299999504,6.58,11.8,10.0,71,6.440845522552901
150,8.50349279999864,6.58,12.89,10.0,71,6.576778863911628
151,8.548810199999934,6.58,11.91,10.0,71,6.704642914402453
152,8.596757199999047,6.58,12.35,10.0,71,6.823679961392587
153,8.641735100000005,6.58,12.02,10.0,71,6.933354672424453
154,8.689556599998468,7.37,12.67,10.0,68,7.033324632367523
155,8.73640179999893,7.37,12.13,10.0,68,7.1235627207118615
156,8.784610099999554,7.37,12.56,10.0,69,7.2045548316934855
157,8.831739199998992,7.37,12.13,10.0,69,7.277424532043004
158,8.892645299998549,7.37,12.89,10.0,69,7.343889149784359
159,8.940958299999693,7.37,13.0,10.0,69,7.406055138314931
160,8.988437099998919,7.37,12.56,10.0,69,7.466115129294271
161,9.036421400000108,7.37,13.0,10.0,69,7.526015364098253
162,9.084548999999242,7.37,12.56,10.0,69,7.587157910264568
163,9.131128699998952,7.37,12.24,10.0,69,7.650199761497932
164,9.191362099998514,7.37,13.22,10.0,69,7.7150103644056545
165,9.252575599999544,8.14,13.22,10.0,67,7.7808376802149155
166,9.299473199998827,8.14,12.46,10.0,67,7.846673473908702
167,9.346910399999617,8.14,13.11,10.0,67,7.911700477588654
168,9.394146099999489,8.14,12.56,10.0,67,7.975644145986424
169,9.442166599999837,8.14,12.46,10.0,67,8.038912634718805
170,9.490244900000109,8.14,12.78,10.0,67,8.102517585326193
171,9.535852799999702,8.14,12.46,10.0,67,8.167828459878807
172,9.5866403,8.14,12.56,10.0,67,8.236225067035233
173,9.63329049999993,8.14,12.67,10.0,67,8.308713513224859
174,9.679634199999782,8.14,12.56,10.0,67,8.385572537078078
175,9.72542439999961,8.14,13.65,10.0,67,8.466100025411466
176,9.772662199999104,8.14,13.0,10.0,68,8.548533110988705
177,9.818503899999996,8.95,12.67,10.0,68,8.63020617068738
178,9.867122399999062,8.96,13.22,10.0,64,8.707949897723186
179,9.912821899999471,8.96,13.0,10.0,64,8.778620036602346
180,9.960166699998808,8.96,12.89,10.0,64,8.839577888976162
181,10.0076554999996,8.96,12.67,10.0,64,8.889003883938404
182,10.053913199999442,8.96,13.54,10.0,65,8.926034582995943
183,10.115455799999836,8.96,13.65,10.0,65,8.95076962012189
184,10.163642800000162,8.96,12.78,10.0,65,8.964197702488216
185,10.211851999998544,8.96,13.65,10.0,65,8.968079146468211
186,10.257109000000128,8.96,13.44,10.0,65,8.964810666318243
187,10.303525699999229,8.96,13.22,10.0,65,8.957287290548948
188,10.365712099999657,8.96,12.89,10.0,65,8.948767117453713
189,10.41329979999864,8.96,13.44,10.0,65,8.942737775634718
190,10.459301499999128,8.96,13.11,10.0,65,8.942779431968658
191,10.52030989999912,8.96,13.0,10.0,65,8.952418355634563
192,10.567466200000126,8.96,13.44,10.0,65,8.9749676317114
193,10.613371800000095,8.96,13.22,10.0,65,9.013357708270764
194,10.661487299999862,8.96,13.11,10.0,65,9.069968993802226
195,10.706333499998436,8.96,13.22,10.0,65,9.146491475932283
196,10.75317879999966,8.96,13.98,10.0,65,9.243851925113592
197,10.799728799998777,9.75,13.65,10.0,62,9.362254674756086
198,10.846354899998914,9.76,13.54,10.0,62,9.50133901530359
199,11.92582020000009,9.76,13.44,20.0,62,9.660363737264127
200,11.97308829999929,9.76,13.44,20.0,103,9.838286417903229
201,12.020674399998825,9.76,14.53,20.0,103,10.033687200011144
202,12.066827499998908,9.76,13.44,20.0,103,10.244619730078652
203,12.113013000000135,10.6,13.54,20.0,101,10.468541232879222
204,12.17536629999995,10.6,13.65,20.0,101,10.702437931930467
205,12.237235599999622,11.43,13.87,20.0,99,10.943145012842201
206,12.285076599999227,11.43,13.76,20.0,99,11.187741313533968
207,12.33149549999871,11.43,13.98,20.0,99,11.433857281831784
208,12.379564999999277,11.43,15.18,20.0,99,11.67979562134191
209,12.425293299998884,12.22,13.98,20.0,97,11.92448770324382
210,12.472725300000093,12.23,15.07,20.0,97,12.167379505948688
211,12.518944199999169,12.23,14.96,20.0,98,12.408293611189405
212,12.566756700000042,12.23,14.2,20.0,98,12.647262237177488
213,12.626440999998522,13.18,15.4,20.0,95,12.88437132022988
214,12.689903099999356,13.18,14.31,20.0,95,13.119691864214003
215,12.735965599998964,13.18,14.31,20.0,95,13.353301672352123
216,12.78311869999925,13.91,14.42,20.0,95,13.585325454286385
217,12.83046309999918,13.99,14.42,20.0,93,13.81593576287836
218,12.878662600000098,13.99,14.53,20.0,93,14.045280457382733
219,12.926263599998492,13.99,14.53,20.0,93,14.273306808380104
220,12.973037799998565,13.99,14.63,20.0,93,14.499517196195223
221,13.022406499998397,14.77,14.63,20.0,93,14.722787628443967
222,13.067110500000126,14.78,15.72,20.0,91,14.941385906905822
223,13.113519200000155,15.48,15.83,20.0,91,15.153219180976338
224,13.157852299998922,15.56,15.83,20.0,88,15.356218997407211
225,13.20621719999872,15.56,14.96,20.0,88,15.548721997283375
226,13.25370599999951,15.56,14.85,20.0,88,15.729742585102766
227,13.300511399998868,16.31,15.94,20.0,88,15.899125342146787
228,13.347043799998572,16.31,14.96,20.0,88,16.05761451433696
229,13.394920499998989,16.31,14.96,20.0,86,16.206827135515294
230,13.440957899998466,16.31,14.96,20.0,86,16.349063418685756
231,13.502586099999462,16.31,15.07,20.0,86,16.486938133946367
232,13.563049299998966,16.31,15.18,20.0,86,16.62291436117152
233,13.609537499998623,16.31,14.96,20.0,86,16.758873375824287
234,13.656838299999436,17.08,15.83,20.0,86,16.895849595844272
235,13.706108599999425,17.08,15.51,20.0,84,17.033996412394764
236,13.750849000000017,17.08,15.18,20.0,84,17.172738712438523
237,13.796778199999608,17.08,15.29,20.0,84,17.311007519116593
238,13.845802099998764,17.77,15.29,20.0,84,17.447502707015712
239,13.890355099998487,17.85,15.83,20.0,84,17.58098365575499
240,13.938859899999445,17.85,15.4,20.0,81,17.71054348673261
241,13.984405100000004,17.85,15.4,20.0,81,17.835767104301915
242,14.030913299999156,17.85,15.29,20.0,81,17.95671859655008
243,14.07803950000016,17.85,16.16,20.0,81,18.07380427738748
244,14.125082599999589,17.85,15.4,20.0,81,18.187619439316
245,14.17249660000016,18.68,15.62,20.0,81,18.29888693068846
246,14.220040000000154,18.69,15.62,20.0,78,18.408527517790976
247,14.267581199999768,18.69,15.51,20.0,78,18.5177800959958
248,14.316704999999274,18.69,15.62,20.0,78,18.628220465509717
249,14.363326699998652,18.69,15.51,20.0,78,18.741590689450092
250,14.408403499999622,18.69,15.51,20.0,78,18.859469592780798
251,14.455534999999143,18.69,16.27,20.0,78,18.98288319074608
252,14.502352999999855,18.69,15.51,20.0,78,19.111970552473515
253,14.550204799999849,19.47,15.62,20.0,76,19.245812596774318
254,14.597506999998586,19.47,15.51,20.0,76,19.382474701010874
255,14.64318429999912,19.47,15.94,20.0,75,19.51920815472153
256,14.691455199999837,19.47,15.62,20.0,75,19.65269798725026
257,14.738215800000036,19.47,15.72,20.0,76,19.779308506520525
258,14.786492199998976,20.25,15.72,20.0,76,19.895376035536856
259,14.836280499999702,20.25,16.16,20.0,76,19.99759482199598
260,14.87891849999869,20.25,15.72,20.0,72,20.083436635606276
261,14.925651300000029,20.25,15.72,20.0,72,20.151472626649824
262,14.97416179999891,20.25,15.72,20.0,72,20.20151416500773
263,15.020832700000028,20.25,15.62,20.0,72,20.2345844517637
264,15.06798290000006,20.25,15.72,20.0,72,20.252777180307174
265,15.1139508999986,20.25,16.49,20.0,72,20.259053553799287
266,15.174637599999189,20.25,15.72,20.0,72,20.257012618835706
267,15.2232458999988,20.25,16.49,20.0,72,20.250655496239563
268,15.286441299998842,20.25,15.83,20.0,72,20.244152532670473
269,15.331324699998731,20.25,16.27,20.0,72,20.241614298758115
270,15.379102400000193,20.25,15.83,20.0,72,20.24686312766729
271,15.433261399999536,20.25,15.94,20.0,72,20.263201695461547
272,15.481112099998429,20.25,16.16,20.0,72,20.29317893133466
273,15.524415799998678,20.25,15.83,20.0,72,20.3383610189847
274,15.571527799998876,20.25,16.16,20.0,72,20.399125884483396
275,15.618406999999934,20.25,16.16,20.0,72,20.47451260528519
276,15.664519500000097,20.25,15.83,20.0,72,20.562171646898765
277,15.710768399998416,20.25,15.94,20.0,72,20.658476582037686
278,15.774085099999866,21.18,16.16,20.0,72,20.75885701698454
279,15.82076319999942,21.19,15.83,20.0,68,20.85835035887667
280,15.867343199999596,21.19,16.6,20.0,68,20.952245197838298
281,15.914322900000116,21.19,16.49,20.0,68,21.036618088303133
282,15.97738659999959,21.19,16.49,20.0,68,21.108637405002057
283,16.024432099999103,21.19,15.83,20.0,68,21.166635766856626
284,16.07225599999947,21.19,15.83,20.0,68,21.210018512554182
285,16.121251399999892,21.19,15.83,20.0,68,21.23907955220591
286,16.168296399999235,21.19,15.94,20.0,68,21.25478270690678
287,16.213555299998916,21.19,16.27,20.0,68,21.258552548238967
288,16.260899099999733,21.19,16.71,20.0,68,21.252104789577075
289,16.30647940000017,21.19,16.81,20.0,68,21.237333141846904
290,16.354361399999107,21.19,16.05,20.0,68,21.21625772114976
291,16.40180959999998,21.19,16.05,20.0,68,21.191029919085175
292,16.448842499999955,21.19,16.05,20.0,68,21.163980343234822
293,16.49520119999943,21.19,16.05,20.0,68,21.137690174031484
294,16.53316409999934,21.19,16.05,20.0,68,21.115062229210253
295,16.580930599999192,21.19,16.05,20.0,68,21.099366376267135
296,16.62922499999877,21.19,16.05,20.0,68,21.0942349394588
297,16.677854599998682,21.19,16.05,20.0,67,21.103587716578428
298,16.72044149999965,21.19,16.16,20.0,67,21.131473485736844
299,17.794359599998643,21.19,16.05,30.0,66,21.181825757903834
300,17.839905400000134,21.19,16.16,30.0,107,21.258145246244613
301,17.916967099999965,21.19,16.27,30.0,107,21.3631401464413
302,17.963431399999536,21.19,16.38,30.0,108,21.498377684758886
303,18.023633899998455,21.19,16.6,30.0,108,21.66402602760041
304,18.07105919999958,22.03,16.71,30.0,105,21.858780509849115
305,18.1181349999988,22.03,16.16,30.0,105,22.080031366329248
306,18.16544069999873,22.78,16.27,30.0,103,22.324228620656168
307,18.21220569999969,22.78,16.27,30.0,103,22.58730273933315
308,18.24968139999873,22.78,16.27,30.0,103,22.864985471862905
309,18.296467299998767,22.78,17.25,30.0,104,23.15295821442767
310,18.343092699999037,23.54,16.27,30.0,104,23.446887627157956
311,18.389812800000072,23.54,16.38,30.0,101,23.742482765268303
312,18.44114730000001,24.29,16.81,30.0,101,24.03565775390775
313,18.48439309999958,24.3,17.58,30.0,99,24.32278260177878
314,18.532612599999997,24.99,16.49,30.0,99,24.60094835193277
315,18.57992999999988,25.06,16.6,30.0,96,24.86816246226149
316,18.639292099998784,25.06,17.8,30.0,96,25.123399567903682
317,18.68758699999853,25.06,17.8,30.0,97,25.366479329706596
318,18.734335099999956,25.78,17.58,30.0,97,25.597830899409146
319,18.78158259999873,25.86,17.8,30.0,97,25.818250144155225
320,18.82995459999984,25.86,16.71,30.0,94,26.02869990658323
321,18.87844669999868,25.86,16.71,30.0,94,26.230140234205575
322,18.92413789999955,26.73,16.71,30.0,95,26.423402486030927
323,18.97160669999903,26.74,16.71,30.0,95,26.609150939761303
324,19.01811529999941,26.74,17.14,30.0,91,26.787910140050712
325,19.068531599999915,26.74,16.92,30.0,91,26.960075440923077
326,19.11519699999917,26.74,16.92,30.0,92,27.125885639236145
327,19.160481799999616,27.68,16.81,30.0,92,27.285438986895493
328,19.206913999998505,27.68,18.12,30.0,92,27.438822992662963
329,19.25477259999934,27.68,17.03,30.0,88,27.586302889593526
330,19.302882699999827,27.68,16.81,30.0,88,27.728433287624977
331,19.350191199999244,27.68,17.03,30.0,88,27.8660256137926
332,19.39699539999856,27.68,16.92,30.0,88,28.00003172200268
333,19.443929399998524,28.49,17.36,30.0,85,28.131460237209346
334,19.492181799998438,28.5,17.25,30.0,85,28.261388473075797
