,time,angle,pressure,set_point,motor_speed,Filtered_angle
0,0.0464307000074768,0.6,0.14,0.0,26,0.7328810751878786
1,0.0928107000072486,0.61,0.14,0.0,18,0.6900849383694486
2,0.1399931000050855,1.77,0.14,0.0,18,0.64873135946224
3,0.1868105000030482,0.96,0.14,0.0,14,0.6089431044135564
4,0.2336109000025317,0.87,0.14,0.0,14,0.5708363461695288
5,0.2808819000056246,0.03,0.25,0.0,14,0.5345201312607113
6,0.3407459000009112,0.02,0.14,0.0,24,0.5000957573363255
7,0.3880735999991884,0.9,0.14,0.0,24,0.46765612170773885
8,0.4359255000017583,-0.6,0.03,0.0,29,0.43728509939543403
9,0.4824253999977372,0.48,0.14,0.0,29,0.4090569752214288
10,0.5290302000066731,0.48,0.14,0.0,19,0.38303593593570445
11,0.5760499000025447,0.48,0.14,0.0,19,0.35927562075731184
12,0.6370930999983102,-0.89,0.14,0.0,19,0.33781871265923197
13,0.6834489000029862,-1.04,0.03,0.0,19,0.3186965653468994
14,0.7301976000017021,-0.13,0.14,0.0,25,0.3019289175850121
15,0.7909486999997171,-0.13,0.25,0.0,25,0.28752377484206354
16,0.8391266999969957,-0.13,0.25,0.0,25,0.27547749017351103
17,0.8862647000059951,-0.13,0.25,0.0,25,0.26577501196055925
18,0.9337262000044576,-0.13,0.25,0.0,25,0.2583902532483093
19,0.9801583999942522,-0.13,0.14,0.0,25,0.25328656031034297
20,1.0250400999939302,-0.92,0.14,0.0,25,0.25041727770936223
21,1.0723376999958418,1.14,0.14,0.0,22,0.24972641796779924
22,1.1199579999956768,1.23,0.14,0.0,22,0.2511494324313333
23,1.1812283000035677,0.14,0.25,0.0,22,0.2546140291142309
24,1.2422656999988249,1.06,0.14,0.0,22,0.260040945089655
25,1.2902938000042925,0.19,0.14,0.0,12,0.2673446139309085
26,1.338303900003666,0.19,0.14,0.0,12,0.27643373010897193
27,1.4003094000072451,0.19,0.14,0.0,22,0.2872117425103876
28,1.4498584999964803,1.03,0.14,0.0,22,0.2995773126601725
29,1.5082281000068178,1.12,0.03,0.0,13,0.3134247526114737
30,1.555289800002356,1.12,0.14,0.0,13,0.3286444125015871
31,1.6032397999952082,-0.06,0.14,0.0,24,0.3451229614392991
32,1.65020230000664,-1.2,0.14,0.0,24,0.36274354222981237
33,1.697265700000571,-1.21,0.03,0.0,36,0.381385870306505
34,1.74409769999329,0.04,0.14,0.0,36,0.40092642099900705
35,1.789618299997528,0.05,0.14,0.0,36,0.42123883084734853
36,1.8374703000008596,0.05,0.14,0.0,23,0.4421945378201155
37,1.8835194999992384,0.82,0.14,0.0,23,0.46366359971728294
38,1.9287539000069955,0.82,0.25,0.0,16,0.48551561322395614
39,1.9746286000008693,-0.05,0.14,0.0,16,0.5076206711313708
40,2.0213256999995792,-0.15,0.25,0.0,25,0.5298503208559663
41,2.06822000000102,1.15,0.25,0.0,25,0.5520785322846683
42,2.132151600002544,0.39,0.25,0.0,20,0.5741827067622315
43,2.176769400000921,1.26,0.14,0.0,20,0.5960447268036951
44,2.223016899995855,-0.73,0.14,0.0,31,0.6175520108729299
45,2.2713287999940803,-0.74,0.03,0.0,31,0.6385985639532052
46,2.3185790999996243,2.71,0.14,0.0,31,0.6590860759778687
47,2.3804100999986986,2.54,0.25,0.0,-15,0.6789251085924116
48,2.425918199995067,1.51,0.14,0.0,-15,0.6980362864913467
49,2.471994299994549,2.65,0.25,0.0,8,0.7163513135016899
50,2.5182900999934645,1.64,0.25,0.0,8,0.7338136831337269
51,2.56602450000355,0.06,0.03,0.0,23,0.7503790623353732
52,2.613037300005089,1.62,0.14,0.0,23,0.7660154016427202
53,2.6604815000027884,1.63,0.25,0.0,7,0.7807028633107448
54,2.70581040000252,1.63,0.14,0.0,7,0.79443363562307
55,2.767709699997795,1.63,0.14,0.0,7,0.8072116270157097
56,2.814820600004168,0.39,0.14,0.0,7,0.819051999804751
57,2.874990299998899,0.39,0.14,0.0,7,0.8299805449488263
58,2.922151100006886,1.17,0.14,0.0,19,0.8400329604530812
59,2.968067900001188,1.17,0.14,0.0,19,0.849254110186341
60,3.030733799998416,1.17,0.14,0.0,11,0.8576972910740772
61,3.09198739999556,1.17,0.14,0.0,11,0.8654234810232644
62,3.1390430000028573,1.17,0.14,0.0,11,0.8725005312798931
63,3.187061200005701,1.16,0.14,0.0,11,0.8790022880380082
64,3.2355062999995425,0.14,0.14,0.0,12,0.8850076462348834
65,3.2969357999973,0.14,0.25,0.0,12,0.8905995602772597
66,3.3433886999991955,0.14,0.25,0.0,21,0.8958640702637956
67,3.3907870999973966,0.14,0.03,0.0,21,0.9008894207303715
68,3.4384701999952085,1.08,0.14,0.0,12,0.9057653262974122
69,3.4836689999938244,1.08,0.14,0.0,12,0.9105823872768338
70,3.544427100001485,0.27,0.14,0.0,20,0.9154316112994386
71,3.589371299996856,1.07,0.14,0.0,20,0.9204039879020645
72,3.63740439999674,1.16,0.14,0.0,11,0.9255900920620764
73,3.686211799999001,1.16,0.14,0.0,11,0.9310797105530402
74,3.733248200005619,1.16,0.14,0.0,11,0.9369614697207739
75,3.7794592999998713,1.16,0.25,0.0,11,0.9433224330286827
76,3.825521899998421,1.16,0.14,0.0,11,0.9502476500359998
77,3.887581600007252,1.16,0.14,0.0,10,0.9578196532795727
78,3.935003299993696,1.16,0.14,0.0,10,0.9661179042407264
79,3.98201340000378,1.16,0.14,0.0,10,0.9752181900422198
80,4.027832699997816,1.16,0.03,0.0,10,0.9851919726720509
81,4.074504300006083,1.97,0.14,0.0,2,0.9961056897214177
82,4.121612300004927,1.97,0.14,0.0,2,1.008019990913306
83,4.169572099999641,0.53,0.14,0.0,16,1.0209888733823036
84,4.21560949999548,0.52,0.03,0.0,16,1.0350586905113293
85,4.262185400002636,1.65,0.25,0.0,16,1.0502670679677242
86,4.3231680000026245,0.4,0.14,0.0,16,1.0666417982776664
87,4.3691928000043845,0.4,0.14,0.0,16,1.0841997597107733
88,4.417156700001215,0.4,0.25,0.0,18,1.102945881233387
89,4.478219399999944,0.4,0.14,0.0,18,1.1228721925207146
90,4.539169299998321,-0.84,0.14,0.0,29,1.1439570117954514
91,4.587240099994233,-0.84,0.25,0.0,29,1.1661643267084443
92,4.635818499999004,-0.84,0.14,0.0,30,1.1894434459719916
93,4.697164900004282,0.21,0.25,0.0,30,1.2137290140737205
94,4.743334400001913,2.63,0.25,0.0,20,1.2389414306365307
95,4.7892334000061965,-0.56,0.14,0.0,20,1.2649876076434248
96,4.8367561000050046,0.26,0.14,0.0,20,1.2917619313952804
97,4.882436100000632,1.17,0.14,0.0,20,1.3191473537106162
98,4.928341299993917,0.11,0.25,0.0,21,1.3470166350353847
99,4.9880707999982405,3.34,0.14,0.0,21,1.375233765463967
100,5.035850999993272,2.45,0.14,0.0,-2,1.4036555098755727
101,5.082154699994135,1.46,0.14,0.0,-2,1.4321329501853106
102,5.128822600003332,1.35,0.14,0.0,-2,1.4605129004385078
103,5.189075200003572,1.35,0.14,0.0,8,1.4886391657666402
104,5.235252700003912,1.35,0.14,0.0,8,1.5163537125082505
105,5.282424999997602,2.03,0.14,0.0,8,1.5434978241322306
106,5.330182399993646,1.41,0.14,0.0,8,1.5699132680249306
107,5.378027500002645,1.33,0.14,0.0,8,1.5954434621641873
108,5.425186899999972,1.33,0.14,0.0,8,1.6199346343950562
109,5.484811799993622,2.75,0.14,0.0,-6,1.6432369877827893
110,5.532672200002708,2.76,0.14,0.0,-6,1.6652058717361244
111,5.578144200000679,1.77,0.14,0.0,3,1.6857029053025798
112,5.624121500004549,2.72,0.14,0.0,3,1.7045969754720132
113,5.67105220000667,1.8,0.14,0.0,3,1.7217650738826844
114,5.7183194999961415,0.83,0.25,0.0,11,1.7370929891298774
115,5.765846299997065,0.83,0.03,0.0,11,1.7504759105693903
116,5.813127300003544,0.83,0.14,0.0,12,1.7618190382452061
117,5.859389200006262,2.79,0.14,0.0,12,1.7710383001286716
118,5.9371123000019,1.93,0.14,0.0,0,1.7780612100425983
119,5.98215130000608,2.73,0.14,0.0,0,1.7828278016051293
120,6.030334399998537,2.74,0.14,0.0,-6,1.7852915294739242
121,6.078480399999535,2.74,0.14,0.0,-6,1.785420050287308
122,6.125327500005369,2.74,0.14,0.0,-7,1.7831958291985424
123,6.1712065000028815,2.74,0.14,0.0,-7,1.7786165394689135
124,6.218253200000618,2.74,0.14,0.0,-7,1.7716952401007668
125,6.264219999997295,1.93,0.14,0.0,-7,1.7624603308024787
126,6.324784099997487,2.93,0.25,0.0,-7,1.7509552973726783
127,6.371715899993433,2.93,0.03,0.0,-9,1.7372382685034373
128,6.432286600000225,2.93,0.14,0.0,-9,1.7213813862503105
129,6.479939700002433,2.06,0.14,0.0,-9,1.7034699617931157
130,6.527982500003418,2.06,0.14,0.0,-9,1.6836013951712112
131,6.57408160000341,3.03,0.14,0.0,-10,1.661883880621482
132,6.61983070000133,1.49,0.14,0.0,-10,1.6384349379054697
133,6.666665299999295,1.49,0.14,0.0,4,1.6133797934402985
134,6.712899699996342,0.73,0.14,0.0,4,1.5868496417511349
135,6.761437699999078,1.8,0.14,0.0,0,1.5589798575652725
136,6.8068463999952655,0.85,0.14,0.0,0,1.5299082380555533
137,6.867856199998641,0.75,0.14,0.0,0,1.4997733176436674
138,6.929871000000276,0.75,0.14,0.0,11,1.4687127723331008
139,6.976212399997166,1.51,0.14,0.0,3,1.4368619371011355
140,7.023081100007403,1.55,0.14,0.0,3,1.4043524513148555
141,7.06922360000317,0.07,0.14,0.0,17,1.3713110100567947
142,7.116722100006882,0.97,0.14,0.0,17,1.337858190818764
143,7.163446399994427,1.06,0.14,0.0,17,1.3041073648911554
144,7.211037400003988,1.06,0.25,0.0,7,1.2701637239486259
145,7.258864300005371,0.16,0.14,0.0,7,1.236123424092555
146,7.303000400002929,0.15,0.14,0.0,16,1.202072835559866
147,7.350183000002289,0.15,0.14,0.0,16,1.1680879206202466
148,7.411907899993821,0.15,0.14,0.0,16,1.1342337931343343
149,7.459610699996119,0.15,0.25,0.0,16,1.1005645018370822
150,7.505723800000851,0.01,0.14,0.0,18,1.0671230502884408
151,7.567427700007101,0.97,0.14,0.0,18,1.0339416486204462
152,7.615579200006323,0.97,0.14,0.0,8,1.001042175733834
153,7.663055700002587,0.04,0.14,0.0,8,0.9684368048242771
154,7.709557900001528,-0.06,0.14,0.0,18,0.9361287424187019
155,7.771267699994496,-0.06,0.14,0.0,18,0.9041130768199812
156,7.818307299996377,-0.06,0.14,0.0,18,0.8723777815521956
157,7.86714970000321,0.8,0.14,0.0,18,0.8409049181796667
158,7.91129550000187,0.8,0.03,0.0,18,0.809672038023121
159,7.959503599995514,0.8,0.03,0.0,10,0.7786537334708491
160,8.020521200000076,1.84,0.25,0.0,10,0.7478232647386415
161,8.082938899999135,1.02,0.14,0.0,0,0.7171541873260872
162,8.14493819999916,2.09,0.14,0.0,0,0.6866219106541355
163,8.193084099999396,2.09,0.14,0.0,-3,0.6562051225700692
164,8.238852800001041,2.09,0.14,0.0,-3,0.6258870163940938
165,8.285033799998928,2.09,0.14,0.0,-3,0.5956562568834325
166,8.332919199994649,1.29,0.25,0.0,-3,0.5655076361224026
167,8.378271299996413,1.29,0.14,0.0,4,0.5354424092554279
168,8.425285200006329,-0.34,0.14,0.0,4,0.5054683491495598
169,8.471238099999027,0.55,0.14,0.0,12,0.475599604452437
170,8.518255799994222,0.56,0.14,0.0,12,0.4458564683773637
171,8.566299800004344,-0.73,0.14,0.0,24,0.4162651441595093
172,8.613391399994725,1.2,0.14,0.0,24,0.38685754838281844
173,8.661163199998555,-0.1,0.14,0.0,24,0.3576711646768732
174,8.722416400007205,-0.1,0.14,0.0,18,0.32874894372857805
175,8.784283600005438,1.63,0.14,0.0,18,0.3001392337522304
176,8.83269460000156,0.82,0.25,0.0,1,0.2718957169327607
177,8.880033199995523,0.82,0.14,0.0,1,0.2440773013377953
178,8.927880799994455,0.82,0.14,0.0,9,0.2167479005786281
179,8.973325099999784,0.82,0.14,0.0,9,0.1899760634954895
180,9.019409900007304,1.74,0.14,0.0,8,0.16383445045575903
181,9.0660593000066,0.63,0.25,0.0,8,0.13839914513399565
182,9.127916500001447,0.62,0.14,0.0,10,0.11374877223379154
183,9.17501999999513,0.62,0.14,0.0,10,0.08996340879300582
184,9.22005740000168,-0.31,0.14,0.0,19,0.06712331797220804
185,9.267406600003596,-1.08,0.14,0.0,19,0.0453075645768951
186,9.314677999995183,-1.08,0.14,0.0,27,0.024592596709597254
187,9.360999199998332,-1.08,0.14,0.0,27,0.005050903406496965
188,9.407191499994951,-1.08,0.25,0.0,27,-0.013250148856438182
189,9.454215699995984,-0.19,0.25,0.0,28,-0.030249245909418684
190,9.515422299999043,-0.19,0.25,0.0,28,-0.04589182570338782
191,9.562120500006133,-0.19,0.25,0.0,19,-0.06013059876972977
192,9.60853379999753,-0.19,0.14,0.0,19,-0.07292595879937638
193,9.669705599997542,-1.22,0.14,0.0,19,-0.08424633233795602
194,9.715623299998695,-1.34,0.14,0.0,19,-0.09406846741078352
195,9.763888500005123,-0.52,0.25,0.0,30,-0.10237761089005927
196,9.811643299995922,-0.43,0.25,0.0,30,-0.10916751329212739
197,9.871763699993608,-0.43,0.36,0.0,21,-0.11444024488421117
198,9.917832199993429,-0.43,0.14,0.0,21,-0.11820586099711916
199,9.965315099994768,-0.43,0.14,0.0,21,-0.1204819635753407
200,10.011979000002611,-0.43,0.14,0.0,21,-0.12129318283195666
201,10.074397799995497,0.46,0.36,0.0,12,-0.12067058817519337
202,10.135635200000252,0.46,0.14,0.0,12,-0.11865104892239398
203,10.198433900004602,0.46,0.14,0.0,12,-0.11527659410905688
204,10.244795999999042,0.46,0.14,0.0,12,-0.11059383673443897
205,10.292491500003962,0.46,0.03,0.0,12,-0.10465351108683907
206,10.353321899994626,0.46,0.14,0.0,12,-0.09751014200677248
207,10.401372899999842,-0.57,0.14,0.0,23,-0.08922184447945036
208,10.46503429999575,-0.57,0.14,0.0,23,-0.0798502294329741
209,10.510474099995918,-0.57,0.14,0.0,23,-0.06946035723411495
210,10.57237160000659,-0.57,0.14,0.0,23,-0.05812066115908928
211,10.618931300006809,0.55,0.14,0.0,12,-0.04590278592800067
212,10.667258800007405,-0.72,0.03,0.0,12,-0.03288133618335855
213,10.727911900001343,-0.72,0.14,0.0,24,-0.019133562237244568
214,10.77505330000713,0.14,0.14,0.0,24,-0.004738995711218328
215,10.835612399998354,0.14,0.25,0.0,16,0.010220980638046656
216,10.882201800006442,0.2,0.14,0.0,16,0.025663629812533284
217,10.930331800002024,0.33,0.14,0.0,14,0.04150538639564046
218,10.9763038999954,-0.6,0.25,0.0,14,0.05766236926869449
219,11.02410530000634,-0.61,0.03,0.0,23,0.07405087483611089
220,11.069123099994613,-0.61,0.14,0.0,23,0.09058788997404692
221,11.115522599997348,0.19,0.25,0.0,23,0.10719168602729519
222,11.162088299999596,0.2,0.14,0.0,15,0.12378252896758975
223,11.222053000004962,1.08,0.25,0.0,15,0.14028348259042775
224,11.268992099998286,0.1,0.25,0.0,15,0.15662123705724182
225,11.315361600005415,0.1,0.14,0.0,15,0.17272689490326676
226,11.363327700004447,0.1,0.25,0.0,16,0.18853668950504512
227,11.408823399993707,0.1,0.14,0.0,16,0.2039926602222173
228,11.456175500003155,0.1,0.25,0.0,16,0.2190433226112309
229,11.50191619999532,0.83,0.03,0.0,16,0.2336443531312401
230,11.548105800000483,0.91,0.14,0.0,16,0.24775927917005877
231,11.609798499994213,0.91,0.03,0.0,8,0.26136013587787593
232,11.656341399997473,0.91,0.14,0.0,8,0.2744280351158648
233,11.701965600004767,1.94,0.14,0.0,8,0.28695359988067404
234,11.76440850000654,0.99,0.14,0.0,8,0.2989372276364674
235,11.81205449999834,0.99,0.03,0.0,7,0.3103891453105601
236,11.859252800000831,0.05,0.14,0.0,7,0.3213292387054459
237,11.921027300006244,0.05,0.25,0.0,16,0.3317866929580661
238,11.967918800000916,0.05,0.25,0.0,16,0.3417995283037488
239,12.01560050000262,0.82,0.14,0.0,9,0.3514141172331121
240,12.061861499998486,1.64,0.14,0.0,9,0.360684720863428
241,12.10892800000147,1.65,0.14,0.0,0,0.36967300701247285
242,12.15639960000408,0.84,0.14,0.0,0,0.37844745656401085
243,12.20472300000256,0.04,0.25,0.0,16,0.38708257776748256
244,12.250720600000932,0.97,0.14,0.0,16,0.39565792655353577
245,12.299603199993726,1.07,0.25,0.0,16,0.40425699630577233
246,12.35923869999533,0.12,0.14,0.0,6,0.41296602942415467
247,12.407234900005278,1.3,0.14,0.0,6,0.42187275738574
248,12.467980400004308,0.58,0.14,0.0,3,0.4310650623295585
249,12.51542700000573,-0.27,0.14,0.0,3,0.44062956293047906
250,12.560529299997144,-0.35,0.25,0.0,20,0.450650145436095
251,12.60718170000473,-1.15,0.14,0.0,20,0.4612065021199405
252,12.669321299996229,-1.15,0.14,0.0,28,0.4723727812084234
253,12.715109500000835,-0.27,0.14,0.0,28,0.4842164559035214
254,12.760782400000608,1.19,0.14,0.0,18,0.4967974748895793
255,12.80746189999627,1.35,0.25,0.0,18,0.5101676646289299
256,12.853567800004384,1.35,0.14,0.0,3,0.5243702553557426
257,12.900674200005597,1.35,0.25,0.0,3,0.539439371874673
258,12.945581000007223,0.59,0.14,0.0,3,0.5553993833554723
259,12.993800800002646,0.58,0.14,0.0,10,0.5722640879932043
260,13.041110299993306,-0.35,0.14,0.0,10,0.590035772763253
261,13.087962399993556,-1.58,0.14,0.0,20,0.6087042329634487
262,13.13606509999954,-1.72,0.14,0.0,20,0.6282458771702667
263,13.195946099993307,-1.72,0.14,0.0,34,0.6486230785058058
264,13.255927000005611,-0.84,0.14,0.0,34,0.669783925926757
265,13.317688399998588,-0.84,0.25,0.0,25,0.6916624594432511
266,13.364276099993733,0.38,0.14,0.0,25,0.7141793793042723
267,13.409817399995518,0.39,0.14,0.0,13,0.7372431500240885
268,13.455471399996895,0.39,0.14,0.0,13,0.7607513888007577
269,13.501722700006212,1.14,0.14,0.0,13,0.784592431116065
270,13.55054339999333,1.22,0.14,0.0,13,0.8086469907863553
271,13.597421400001622,1.22,0.25,0.0,13,0.8327898493475473
272,13.657281299994793,1.22,0.14,0.0,4,0.8568915160620607
273,13.70446449999872,1.22,0.14,0.0,4,0.8808198168803961
274,13.750103200000012,-0.01,0.14,0.0,4,0.9044414015747799
275,13.811161000005086,2.06,0.14,0.0,4,0.9276231897053484
276,13.857601800002158,0.86,0.25,0.0,-4,0.9502337873320567
277,13.903468699994846,0.86,0.14,0.0,-4,0.9721448827693842
278,13.95058859999699,0.86,0.14,0.0,7,0.9932326086088354
279,14.012638900007005,1.78,0.25,0.0,7,1.0133788731396083
280,14.060333200002788,1.88,0.14,0.0,-2,1.0324726706820526
281,14.107259099997464,1.88,0.14,0.0,-2,1.0504113416760752
282,14.152465599996503,1.88,0.14,0.0,-2,1.067101718455705
283,14.198346400007722,0.63,0.25,0.0,-2,1.0824611076614863
284,14.244171400001504,-0.26,0.03,0.0,18,1.0964181185376367
285,14.306048900005408,2.39,0.03,0.0,18,1.108913414309511
286,14.352107600003364,2.82,0.14,0.0,-12,1.119900470883015
287,14.399099999995087,2.81,0.25,0.0,-12,1.1293463249152211
288,14.446953799997573,2.81,0.14,0.0,-12,1.1372321724111878
289,14.494466999996805,2.81,0.14,0.0,-12,1.1435536673555442
290,14.542425999999978,1.7,0.25,0.0,-12,1.1483208484728207
291,14.602630099994713,2.58,0.14,0.0,-9,1.1515576985475056
292,14.664815099997211,1.26,0.25,0.0,-9,1.1533013831160146
293,14.71211449999828,1.26,0.14,0.0,2,1.1536012319382447
294,14.75905110000167,0.44,0.14,0.0,2,1.15251753637816
295,14.821019900002284,0.35,0.14,0.0,11,1.150120254602898
296,14.868071300006704,1.27,0.14,0.0,11,1.146487726030914
297,14.916707600001246,1.27,0.14,0.0,2,1.1417054656756607
298,14.96115689999715,1.27,0.14,0.0,2,1.135865043793728
299,15.006792100000894,0.07,0.14,0.0,2,1.1290630097886158
300,15.067703900000197,0.9,0.03,0.0,2,1.121399836930358
301,15.11504319999949,1.84,0.25,0.0,-2,1.112978910996573
302,15.162136400002057,1.15,0.14,0.0,-2,1.10390558214642
303,15.208721600007266,1.08,0.14,0.0,3,1.0942862470089425
304,15.253602600001614,0.08,0.14,0.0,3,1.0842274138468029
305,15.299708100006685,0.08,0.14,0.0,3,1.073834759603795
306,15.34546890000638,1.06,0.14,0.0,13,1.0632122475898382
307,15.392718000002787,1.07,0.25,0.0,13,1.0524613709955257
308,15.454177000006894,1.01,0.14,0.0,5,1.0416805249947318
309,15.501322600001004,0.11,0.25,0.0,5,1.0309644592622484
310,15.548488100001125,0.1,0.14,0.0,13,1.0204037804709698
311,15.595465799997328,0.85,0.14,0.0,13,1.0100845316034566
312,15.6433415000065,0.85,0.14,0.0,5,1.0000878952706722
313,15.69033880000643,-0.01,0.14,0.0,5,0.9904900320308649
314,15.737424100007049,-0.1,0.36,0.0,5,0.9813620360633764
315,15.78450399999565,1.71,0.14,0.0,15,0.9727700107867338
316,15.84559480000462,0.85,0.14,0.0,15,0.9647752771095576
317,15.893140900006983,-0.03,0.14,0.0,5,0.9574346858370865
318,15.937598300006355,1.77,0.14,0.0,5,0.950800983257211
319,15.998699699994177,2.73,0.14,0.0,-4,0.9449232018779423
320,16.04617080000753,0.51,0.14,0.0,-4,0.9398470348301877
321,16.094758699997328,2.04,0.14,0.0,8,0.935615111229633
322,16.138898400007747,1.22,0.14,0.0,8,0.9322671154993818
323,16.184679400001187,0.17,0.14,0.0,1,0.9298397608698505
324,16.231817299994873,1.43,0.14,0.0,1,0.928366661977259
325,16.278135600005044,1.44,0.14,0.0,0,0.9278781572445381
326,16.33977170000435,0.1,0.14,0.0,0,0.9284011125577106
327,16.385585900003207,-0.05,0.25,0.0,14,0.9299587131801773
328,16.447647699998925,-0.05,0.25,0.0,14,0.932570276976879
329,16.492978800000856,0.99,0.25,0.0,3,0.9362511676166743
330,16.54012689999945,0.99,0.14,0.0,3,0.9410128652907048
331,16.588016499998048,2.22,0.14,0.0,3,0.946863171468572
332,16.634965599994757,1.28,0.14,0.0,-8,0.9538064565924509
333,16.681366899996647,1.28,0.14,0.0,-8,0.9618438478703858
334,16.72824739999487,1.28,0.14,0.0,0,0.9709732969648102
335,16.77646470000036,1.28,0.14,0.0,0,0.9811895266728823
336,16.82329010000103,0.36,0.14,0.0,8,0.9924838865961765
337,16.869317599994247,0.35,0.14,0.0,8,1.004844156514916
338,16.92988690000493,0.35,0.14,0.0,8,1.0182543543158895
339,16.976376699996763,1.59,0.25,0.0,9,1.0326946148100364
340,17.024408299999777,1.6,0.14,0.0,9,1.0481411664427267
341,17.08618149999529,1.6,0.14,0.0,-2,1.0645663612636633
342,17.147631500003627,1.6,0.14,0.0,-2,1.0819386733725862
