,time,angle,pressure,set_point,motor_speed,Filtered_angle
0,0.0496087999999872,-0.85,4.82,0.0,26,-0.8500000066157338
1,0.1051354000001083,-0.85,5.04,0.0,26,-0.8499999938340487
2,0.1434738999996625,-0.85,4.82,0.0,26,-0.8500000054751282
3,0.2011781999999584,-0.85,4.72,0.0,26,-0.8499999954791888
4,0.2469455999998899,-0.85,4.82,0.0,26,-0.8500000032837753
5,0.301078100000268,-0.85,3.63,0.0,26,-0.8499999982509142
6,0.3606741000003239,-0.85,4.93,0.0,26,-0.8499999999072235
7,0.4017674999995506,-0.85,3.63,0.0,26,-0.8500000022447395
8,0.4526018999995358,-0.85,4.93,0.0,26,-0.8499999952980546
9,0.4982646999997087,-0.85,3.84,0.0,26,-0.8500000074505578
10,0.5613774000003104,-0.85,5.04,0.0,26,-0.8499999895333916
11,0.616829399999915,-0.85,3.63,0.0,26,-0.8500000137149166
12,0.6612515999995594,-0.85,5.04,0.0,26,-0.849999982851872
13,0.7078910999998698,-0.85,4.5,0.0,27,-0.8500000207059117
14,0.7711339999996198,-0.85,5.04,0.0,27,-0.8499999756856286
15,0.8262948000001415,-0.85,5.04,0.0,27,-0.8500000278857153
16,0.8808675999998741,-0.85,4.93,0.0,27,-0.8499999686817548
17,0.932335200000125,-0.85,5.37,0.0,27,-0.85000003449671
18,0.9848653999997624,-0.85,5.04,0.0,27,-0.8499999627069137
19,1.0411182999996529,-0.85,5.26,0.0,27,-0.8500000395678318
20,1.0813148999995974,-0.85,5.04,0.0,27,-0.8499999588283425
21,1.1419215999994776,-0.85,5.26,0.0,27,-0.8500000419478595
22,1.1871408999995765,-0.85,5.04,0.0,27,-0.8499999582647515
23,1.2411626000002798,-0.85,5.15,0.0,27,-0.8500000403716926
24,1.2764956999999413,-0.85,5.15,0.0,27,-0.8499999623017089
25,1.3239591999999902,-0.85,4.06,0.0,27,-0.850000033564165
26,1.3661972999998395,-0.85,5.26,0.0,27,-0.8499999721681496
27,1.4162045000002763,-0.85,4.17,0.0,27,-0.8500000203832468
28,1.4609193999995114,-0.85,5.26,0.0,27,-0.8499999888739429
29,1.5009368000000904,-0.85,5.15,0.0,27,-0.850000000000632
30,1.5610956000000442,-0.85,5.26,0.0,27,-0.8500000130128942
31,1.61617810000007,-0.85,4.82,0.0,27,-0.8499999721126771
32,1.6648833999997803,-0.85,5.26,0.0,27,-0.8500000445411299
33,1.711915500000032,-0.85,5.04,0.0,27,-0.8499999371685765
34,1.7595430999999735,-0.85,5.37,0.0,27,-0.8500000825473468
35,1.8050959000001967,-0.85,5.15,0.0,27,-0.8499998965958223
36,1.861619399999654,-0.85,5.26,0.0,27,-0.8500001250383964
37,1.917035599999508,-0.85,5.04,0.0,27,-0.849999852995974
38,1.964734899999712,-0.85,4.82,0.0,27,-0.8500001687705504
39,2.0117075999996814,-0.85,5.04,0.0,28,-0.8499998102772596
40,2.0592650999997204,-0.85,5.15,0.0,28,-0.8500002091627102
41,2.10680820000016,-0.85,5.26,0.0,28,-0.8499997736854669
42,2.152883199999451,-0.85,5.59,0.0,28,-0.8500002403317232
43,2.214390899999671,-0.85,5.26,0.0,28,-0.8499997496921261
44,2.261438100000305,-0.85,5.7,0.0,28,-0.8500002552907019
45,2.31780819999949,-0.85,4.61,0.0,28,-0.8499997457003003
46,2.3597259999996822,-0.85,5.7,0.0,28,-0.8500002463475363
47,2.40834089999953,-0.85,4.82,0.0,28,-0.8499997695347229
48,2.454285099999652,-0.85,5.7,0.0,28,-0.8500002057313856
49,2.5027055999998997,-0.85,5.15,0.0,28,-0.849999828695614
50,2.548228300000119,-0.85,5.59,0.0,28,-0.8500001264589283
51,2.595064999999522,-0.85,5.37,0.0,28,-0.8499999293751268
52,2.655645099999674,-0.85,5.59,0.0,28,-0.8500000034288608
53,2.703563299999587,-0.85,5.26,0.0,28,-0.8500000752623176
54,2.7510168999997404,-0.85,5.7,0.0,28,-0.8499998347025927
55,2.796465399999761,-0.85,5.26,0.0,28,-0.8500002661964515
56,2.8449813999995968,-0.85,5.7,0.0,28,-0.84999962289217
57,2.9064140999998926,-0.85,5.15,0.0,28,-0.8500004967679319
58,2.9543259000001854,-0.85,5.7,0.0,28,-0.849999376535008
59,3.000833299999613,-0.85,5.37,0.0,28,-0.8500007550087567
60,3.046528699999726,-0.85,5.7,0.0,28,-0.8499991112922114
61,3.093192100000124,-0.85,5.15,0.0,28,-0.8500010213563037
62,3.140618999999788,-0.85,5.7,0.0,28,-0.8499988507674832
63,3.187888700000258,-0.85,5.48,0.0,28,-0.8500012681104872
64,3.2341269999997166,-0.85,5.48,0.0,28,-0.849998626712557
65,3.280786100000114,-0.85,5.48,0.0,28,-0.8500014596284788
66,3.326688099999956,-0.85,4.28,0.0,29,-0.8499984783696174
67,3.3875569000001637,-0.85,5.7,0.0,29,-0.8500015535061305
68,3.4350328000000445,-0.85,5.81,0.0,29,-0.8499984507086955
69,3.4810434000000896,-0.85,5.15,0.0,29,-0.8500015029733053
70,3.5288652999997794,-0.85,6.02,0.0,29,-0.8499985913562172
71,3.576149700000314,-0.85,4.93,0.0,29,-0.850001260674144
72,3.623035399999935,-0.85,5.91,0.0,29,-0.8499989460866216
73,3.66934399999991,-0.85,5.26,0.0,29,-0.8500007839066887
74,3.717211600000155,-0.85,6.02,0.0,29,-0.8499995528673673
75,3.763150400000086,-0.85,5.15,0.0,29,-0.8500000412555712
76,3.817280999999639,-0.85,6.02,0.0,29,-0.8500004346107196
77,3.862762400000065,-0.85,5.04,0.0,29,-0.8499990203665806
78,3.909054300000207,-0.85,6.02,0.0,29,-0.8500015909912001
79,3.969246800000292,-0.85,5.37,0.0,29,-0.8499977363878416
80,4.029442000000017,-0.85,5.91,0.0,29,-0.8500029899273931
81,4.076978199999758,-0.85,5.15,0.0,29,-0.8499962403505265
82,4.123985999999604,-0.85,5.91,0.0,29,-0.850004559585937
83,4.171999600000163,-0.85,4.72,0.0,29,-0.849994626501254
84,4.231063600000198,-0.85,5.81,0.0,29,-0.8500061820212591
85,4.282465899999806,-0.85,5.59,0.0,29,-0.8499930373553012
86,4.331189900000027,-0.85,5.81,0.0,29,-0.850007689786269
87,4.381787299999814,-0.85,5.48,0.0,29,-0.8499916650490337
88,4.441674699999567,-0.85,5.81,0.0,29,-0.8500088669986613
89,4.497137399999701,-0.85,6.02,0.0,29,-0.8499907474728101
90,4.550651800000196,-0.85,4.93,0.0,29,-0.8500094563809085
91,4.6014310999999,-0.85,6.02,0.0,30,-0.8499905577075731
92,4.661186199999975,-0.85,6.13,0.0,30,-0.8500091736629803
93,4.7130466999997225,-0.85,5.37,0.0,30,-0.8499913855158653
94,4.757921499999611,-0.85,6.13,0.0,30,-0.8500077304001891
95,4.805736700000125,-0.85,5.59,0.0,30,-0.849993510093211
96,4.867617899999459,-0.85,6.24,0.0,30,-0.850004865676853
97,4.930151699999442,-0.85,4.82,0.0,30,-0.849997163999984
98,4.9896186999994825,-0.85,5.91,0.0,30,-0.8500003863164098
99,5.051058899999589,-0.85,6.24,0.0,30,-0.8500024891801602
100,5.101792299999943,-0.85,5.7,0.0,30,-0.849994214099327
101,5.156234099999892,-0.85,6.02,0.0,30,-0.8500094872183003
102,5.204949599999964,-0.85,4.82,0.0,30,-0.849986437131555
103,5.248629799999435,-0.85,6.02,0.0,30,-0.8500179674413469
104,5.296414899999945,-0.85,5.48,0.0,30,-0.8499773609767971
105,5.344011600000158,-0.85,6.13,0.0,30,-0.850027498047261
106,5.391150599999492,-0.85,6.13,0.0,30,-0.8499675535788312
107,5.437663200000316,-0.85,6.02,0.0,30,-0.8500373670007091
108,5.484281299999566,-0.85,6.13,0.0,30,-0.8499578765172963
109,5.53272939999988,-0.85,6.13,0.0,30,-0.850046560791006
110,5.581841799999893,-0.85,6.35,0.0,30,-0.8499494939711377
111,5.629436700000042,-0.85,6.02,0.0,30,-0.8500537700682137
112,5.667583299999933,-0.85,4.72,0.0,30,-0.849943850158542
113,5.717617799999971,-0.85,6.13,0.0,30,-0.8500574313935203
114,5.764163900000312,-0.85,4.93,0.0,31,-0.8499426062584353
115,5.811898899999505,-0.85,5.7,0.0,31,-0.8500558135761104
116,5.8579571000000215,-0.85,6.46,0.0,31,-0.8499475291794603
117,5.904584099999738,-0.85,5.59,0.0,31,-0.850047155045888
118,5.951607799999692,-0.85,6.57,0.0,31,-0.8499603272856048
119,6.01145489999999,-0.85,5.15,0.0,31,-0.8500298551986004
120,6.049137199999677,-0.85,6.46,0.0,31,-0.8499824325070487
121,6.096285699999498,-0.85,6.24,0.0,31,-0.8500027175022323
122,6.144562499999665,-0.85,6.35,0.0,31,-0.8500147342440083
123,6.19102810000004,-0.85,5.15,0.0,31,-0.8499652353610657
124,6.2379140000002735,-0.85,6.35,0.0,31,-0.8500572780340631
125,6.285905499999899,-0.85,6.35,0.0,31,-0.8499179034717972
126,6.334827800000312,-0.85,6.35,0.0,31,-0.8501089508131899
127,6.377971799999614,-0.85,6.57,0.0,31,-0.8498625280832283
128,6.425634100000025,-0.85,6.35,0.0,31,-0.8501671842169837
129,6.467343600000277,-0.85,6.57,0.0,31,-0.849802499867789
130,6.518130999999812,-0.85,6.13,0.0,31,-0.8502277169152502
131,6.564951299999848,-0.85,6.46,0.0,31,-0.8497429840034572
132,6.612716399999954,-0.85,6.24,0.0,31,-0.8502844653296168
133,6.674579800000174,-0.85,6.57,0.0,31,-0.849690974811039
134,6.721622500000194,-0.85,5.26,0.0,31,-0.8503295578553065
135,6.770093000000088,-0.85,6.57,0.0,31,-0.8496551584060515
136,6.816042100000232,-0.85,5.26,0.0,31,-0.8503535892866864
137,6.866917199999989,-0.85,6.46,0.0,31,-0.8496455279842271
138,6.911113600000135,-0.85,5.15,0.0,31,-0.8503461478176956
139,6.95765080000001,-0.85,6.35,0.0,31,-0.8496727042752418
140,7.004747500000121,-0.85,6.46,0.0,31,-0.8502966550926752
141,7.052957199999582,-0.85,6.35,0.0,32,-0.849746929927376
142,7.09985289999986,-0.85,6.57,0.0,32,-0.8501955389267924
143,7.161372499999743,-0.85,5.37,0.0,32,-0.8498767322916156
144,7.20738160000019,-0.85,6.46,0.0,32,-0.8500357276319462
145,7.254622800000106,-0.85,6.57,0.0,32,-0.850067284749836
146,7.301941599999736,-0.85,5.26,0.0,32,-0.8498144143321354
147,7.349438199999895,-0.85,6.13,0.0,32,-0.850318541890371
148,7.401328899999498,-0.85,6.35,0.0,32,-0.849534990326939
149,7.462085399999523,-0.85,6.13,0.0,32,-0.8506232766974369
150,7.507337899999584,-0.85,4.93,0.0,32,-0.8492089909938544
151,7.554326599999513,-0.85,5.91,0.0,32,-0.8509652051432132
152,7.601964100000259,-0.85,6.24,0.0,32,-0.8488578401205815
153,7.665489799999705,-0.85,5.81,0.0,32,-0.8513174400394069
154,7.712088000000222,-0.85,4.93,0.0,32,-0.8485141249625291
155,7.758841199999551,-0.85,6.02,0.0,32,-0.8516415647626076
156,7.80613379999977,-0.85,6.24,0.0,32,-0.8482220925803584
157,7.856022299999495,-0.85,5.37,0.0,32,-0.851887649820828
158,7.903558199999679,-0.85,5.04,0.0,32,-0.8480370375794257
159,7.949771599999622,-0.85,6.13,0.0,32,-0.8519955410843257
160,7.998157199999696,-0.85,6.13,0.0,32,-0.8480232628283876
161,8.04519160000018,-0.85,5.26,0.0,32,-0.8518977169842892
162,8.092017799999667,-0.85,5.81,0.0,32,-0.8482503490227463
163,8.139061099999708,-0.85,6.24,0.0,32,-0.8515239323454359
164,8.186873200000264,-0.85,4.93,0.0,32,-0.8487875763147977
165,8.235253799999555,-0.85,5.37,0.0,32,-0.8508077293808448
166,8.282422100000076,-0.85,6.24,0.0,32,-0.849696509808712
167,8.330116099999941,-0.85,5.7,0.0,33,-0.8496946952159277
168,8.382684999999583,-0.85,4.82,0.0,33,-0.8510219949868113
169,8.441144999999779,-0.85,5.26,0.0,33,-0.8481520781468609
170,8.49590999999964,-0.85,5.7,0.0,33,-0.8527821081357645
171,8.550766399999702,-0.85,6.24,0.0,33,-0.8461790459918989
172,8.597843499999726,-0.85,6.35,0.0,33,-0.8549579624998663
173,8.644510999999511,-0.85,5.81,0.0,33,-0.8438164915702421
174,8.69203430000016,-0.85,5.59,0.0,33,-0.8574846665596764
175,8.738994000000275,-0.85,6.24,0.0,33,-0.8411548838476423
176,8.785049099999924,-0.85,6.46,0.0,33,-0.8602451404233638
177,8.832365700000082,-0.85,4.93,0.0,33,-0.8383382595101255
178,8.87782150000021,-0.85,6.02,0.0,33,-0.8630688842820368
179,8.925757099999828,-0.85,6.46,0.0,33,-0.8355620885525481
180,8.98130669999955,-0.85,6.24,0.0,33,-0.8657381154973146
181,9.034335800000008,-0.85,5.15,0.0,33,-0.8330624757305661
182,9.079742299999452,-0.85,5.59,0.0,33,-0.8680038991808926
183,9.141642999999933,-0.85,5.59,0.0,33,-0.8310940273173967
184,9.196224399999664,-0.85,6.13,0.0,33,-0.8696149417927096
185,9.252551699999458,-0.85,6.35,0.0,33,-0.8298937664256398
186,9.298645199999555,-0.85,6.02,0.0,33,-0.8703615559534884
187,9.345087400000011,-1.63,4.93,0.0,33,-1.6096289409685105
188,9.39236290000008,-1.63,5.81,0.0,37,-1.650134872750103
189,9.452736100000038,-1.63,6.46,0.0,37,-1.6103369020813787
190,9.50146070000028,-1.63,5.91,0.0,38,-1.648974250749384
191,9.546789400000309,-1.63,6.46,0.0,38,-1.6119069158146753
192,9.594559999999548,-1.63,6.9,0.0,38,-1.6470485204615497
193,9.65134020000005,-1.63,7.11,0.0,38,-1.6141281299458732
194,9.711922100000264,-1.63,6.57,0.0,38,-1.6445953239396902
195,9.7559411000002,-1.63,6.46,0.0,38,-1.6167492963674654
196,9.801293599999552,-1.63,7.0,0.0,38,-1.6418684514677544
197,9.849169099999926,-1.63,7.33,0.0,38,-1.619523157923744
198,9.910347600000025,-1.63,7.22,0.0,38,-1.639101394947015
199,9.958360200000245,-1.63,7.11,0.0,38,-1.6222355326244842
200,10.01907889999984,-1.63,7.22,0.0,38,-1.6364850069240546
201,10.066059199999472,-1.63,6.9,0.0,38,-1.6247215572701788
202,10.121650399999451,-1.63,7.22,0.0,38,-1.634156695543945
203,10.168293300000188,-1.63,7.22,0.0,39,-1.6268717127810608
204,10.21799060000012,-1.63,7.11,0.0,39,-1.6321985314308245
205,10.263352599999962,-1.63,7.22,0.0,39,-1.6286302113263191
206,10.310547000000042,-1.63,7.0,0.0,39,-1.6306417699474256
207,10.357465799999773,-1.63,5.7,0.0,39,-1.6299881249735007
208,10.40237689999958,-1.63,5.7,0.0,39,-1.6294755527032025
209,10.450806400000149,-1.63,5.91,0.0,39,-1.6309733280949585
210,10.49733809999998,-1.63,6.46,0.0,39,-1.628657894055479
211,10.549050699999498,-1.63,6.35,0.0,39,-1.631638961547387
212,10.595470700000078,-1.63,6.9,0.0,39,-1.6281274337563063
213,10.642797499999688,-1.63,7.22,0.0,39,-1.6320517501170524
214,10.688659700000244,-1.63,7.11,0.0,39,-1.6278148056951418
215,10.75041599999986,-1.63,7.22,0.0,39,-1.6322811511662472
216,10.810844800000268,-1.63,7.33,0.0,39,-1.6276528048689305
217,10.858567700000094,-1.63,6.9,0.0,39,-1.6323900063527403
218,10.90603949999968,-1.63,7.22,0.0,40,-1.6275848112898645
219,10.9547421999996,-1.63,7.11,0.0,40,-1.632427123238601
220,11.00125990000015,-1.63,7.22,0.0,40,-1.6275711422952894
221,11.049623599999904,-1.63,7.22,0.0,40,-1.6324220327573682
222,11.1266384999999,-1.63,6.24,0.0,40,-1.627593155128637
223,11.173162500000217,-1.63,6.57,0.0,40,-1.632382046128313
224,11.2209342999995,-1.63,6.35,0.0,40,-1.6276550192665153
225,11.271417299999484,-1.63,6.68,0.0,40,-1.6322916580233433
226,11.326671400000125,-1.63,6.35,0.0,40,-1.6277831384433763
227,11.373861199999736,-1.63,6.24,0.0,40,-1.6321142936799768
228,11.42226169999958,-1.63,6.57,0.0,40,-1.6280232453018146
229,11.469022799999948,-1.63,7.0,0.0,40,-1.631796355440049
230,11.516597799999545,-1.63,6.68,0.0,41,-1.6284352384214396
231,11.564326099999562,-1.63,7.0,0.0,41,-1.6312734675242893
232,11.624906899999589,-1.63,7.33,0.0,41,-1.629085902945861
233,11.672161700000288,-1.63,6.24,0.0,41,-1.6304787270570955
234,11.720617400000265,-1.63,6.46,0.0,41,-1.6300397701277511
235,11.782863700000236,-1.63,6.9,0.0,41,-1.6293526286641913
236,11.829400300000088,-1.63,5.91,0.0,41,-1.6313485408657635
237,11.876029999999446,-1.63,6.13,0.0,41,-1.6278541296147377
238,11.938692499999888,-1.63,7.22,0.0,41,-1.6330397297440231
239,11.996221499999592,-1.63,6.9,0.0,41,-1.625972060613324
240,12.051002199999855,-1.63,7.22,0.0,41,-1.6351054764947368
241,12.10667420000027,-1.63,6.9,0.0,41,-1.6237357715737386
242,12.168357200000171,-1.63,6.57,0.0,41,-1.637492808424287
243,12.217306300000018,-1.63,6.13,0.0,42,-1.6212235501112886
244,12.26388659999975,-1.63,6.35,0.0,42,-1.640096996704211
245,12.312654000000292,-1.63,6.02,0.0,42,-1.618566991859435
246,12.357534099999611,-1.63,6.13,0.0,42,-1.6427599976407667
247,12.404360900000029,-1.63,6.24,0.0,42,-1.615949174663463
248,12.471397299999808,-1.63,6.35,0.0,42,-1.6452762643316903
249,12.518206099999588,-1.63,7.33,0.0,42,-1.613594239373104
250,12.56434739999986,-1.63,7.44,0.0,42,-1.6474084059860805
251,12.611141599999428,-1.63,7.44,0.0,42,-1.6117458579642028
252,12.65918799999963,-1.63,7.33,0.0,42,-1.6489152124263093
253,12.70750390000012,-1.63,7.33,0.0,42,-1.610632122035622
254,12.754658699999707,-1.63,7.44,0.0,42,-1.6495944072683604
255,12.816087000000152,-2.39,7.44,0.0,42,-2.3704148278659547
256,12.87120210000012,-2.4,6.35,0.0,47,-2.419340134274156
257,12.92203520000021,-2.4,7.77,0.0,47,-2.3811311667253716
258,12.968142499999884,-2.4,7.22,0.0,47,-2.4181888875083195
259,13.016209399999752,-2.4,6.9,0.0,47,-2.3826760926141537
260,13.061201299999992,-2.4,6.68,0.0,47,-2.416301524490594
261,13.109198500000277,-2.4,6.46,0.0,47,-2.3848483023842375
262,13.155417099999797,-2.4,6.57,0.0,47,-2.4139052804824512
263,13.202736600000208,-2.4,7.88,0.0,47,-2.3874071640724295
264,13.25066549999974,-2.4,7.44,0.0,47,-2.4112436794230248
265,13.301444799999445,-2.4,7.0,0.0,47,-2.390114866684004
266,13.352397599999676,-2.4,6.46,0.0,47,-2.4085419721623134
267,13.400960699999814,-2.4,7.66,0.0,48,-2.392763961055586
268,13.447483099999772,-2.4,7.22,0.0,48,-2.405986011793984
269,13.495211899999958,-2.4,6.79,0.0,48,-2.395192698959613
270,13.543271999999888,-2.4,7.88,0.0,48,-2.4037120569363903
271,13.589173700000174,-2.4,7.88,0.0,48,-2.3972907307739666
272,13.636452499999905,-2.4,7.44,0.0,48,-2.4018049407671205
273,13.684455599999636,-2.4,7.0,0.0,48,-2.398997681345563
274,13.736121699999783,-2.4,7.44,0.0,48,-2.4003021676619407
275,13.791096599999946,-2.4,7.33,0.0,49,-2.4002969277116617
276,13.827673599999798,-2.4,7.66,0.0,49,-2.3992017552089635
277,13.87481149999985,-2.4,6.46,0.0,49,-2.4012065985294595
278,13.93718590000026,-2.4,7.55,0.0,49,-2.39847197928103
279,13.985192799999822,-2.4,6.46,0.0,49,-2.401769450283682
280,14.033105700000306,-2.4,7.44,0.0,49,-2.398061559065389
281,14.081992899999932,-2.4,7.88,0.0,49,-2.402042891152655
282,14.127889200000029,-2.4,6.57,0.0,49,-2.3979091997430997
283,14.181517899999562,-2.4,6.24,0.0,49,-2.4020900532177203
284,14.231220300000132,-2.4,7.44,0.0,50,-2.3979517641061605
285,14.292495400000009,-2.4,6.79,0.0,50,-2.4019724815113808
286,14.340260599999963,-2.4,7.33,0.0,50,-2.3981306515403586
287,14.387250400000084,-2.4,6.79,0.0,50,-2.401744728848619
288,14.434465600000294,-2.4,7.88,0.0,50,-2.3983962132492542
289,14.48063159999947,-2.4,7.44,0.0,50,-2.4014509246253457
290,14.527995100000226,-2.4,6.79,0.0,50,-2.3987102239106215
291,14.58152549999977,-2.4,6.35,0.0,50,-2.4011232229411243
292,14.636069199999838,-2.4,6.79,0.0,51,-2.399046565846463
293,14.697290500000236,-2.4,6.35,0.0,51,-2.4007819244193978
294,14.74479700000029,-2.4,6.46,0.0,51,-2.3993903702598054
295,14.79234489999999,-2.4,7.66,0.0,51,-2.400436997493966
296,14.838979500000278,-2.4,7.66,0.0,51,-2.399735911615332
297,14.901121899999453,-2.4,6.35,0.0,51,-2.4000906876580994
298,14.96657950000008,-2.4,6.46,0.0,51,-2.400083577040049
299,15.01575479999974,-2.4,7.77,0.0,51,-2.3997408862041634
300,15.065941199999545,-2.4,6.46,0.0,52,-2.4004362431894446
301,15.114062200000262,-2.4,7.88,0.0,52,-2.3993849236571076
302,15.15933640000003,-2.4,7.44,0.0,52,-2.4007953969260383
303,15.207761200000276,-2.4,6.9,0.0,52,-2.399023450184335
304,15.254091799999514,-2.4,7.88,0.0,52,-2.4011573391246332
305,15.299968600000284,-2.4,7.22,0.0,52,-2.398664061664249
306,15.349001900000076,-2.4,6.68,0.0,52,-2.4015098152815018
307,15.393818399999873,-2.4,7.77,0.0,52,-2.398324325301883
308,15.448885900000278,-2.4,7.11,0.0,52,-2.4018294210411577
309,15.501368999999611,-2.4,7.55,0.0,53,-2.3980338558306777
310,15.547921599999428,-2.4,6.79,0.0,53,-2.4020801303721737
311,15.60937339999964,-2.4,6.57,0.0,53,-2.39783509897593
312,15.658047899999474,-2.4,6.46,0.0,53,-2.40221328087857
313,15.71708529999978,-2.4,7.99,0.0,53,-2.3977825023368218
314,15.765598699999828,-2.4,6.79,0.0,53,-2.4021693141820846
315,15.826652799999463,-2.4,7.88,0.0,53,-2.397939806425578
316,15.874178999999458,-2.4,6.57,0.0,53,-2.401881497698667
317,15.936624199999642,-2.4,6.68,0.0,53,-2.3983752821863926
318,15.981389200000194,-2.4,8.2,0.0,53,-2.4012817357984164
319,16.03621109999949,-2.4,7.0,0.0,53,-2.3991548869021337
320,16.091530099999545,-2.4,8.09,0.0,54,-2.400308403395658
321,16.137657899999795,-2.4,7.33,0.0,54,-2.4003335162842845
322,16.199673899999652,-2.4,8.42,0.0,54,-2.3989158972384685
323,16.247190000000046,-2.4,7.0,0.0,54,-2.4019448003878168
324,16.309463999999934,-2.4,8.2,0.0,54,-2.3970852989582623
325,16.35649039999953,-2.4,7.66,0.0,54,-2.4039902218602287
326,16.404613400000017,-2.4,8.42,0.0,54,-2.394835186214577
327,16.45183040000029,-2.4,7.11,0.0,54,-2.406428715635873
328,16.49865359999967,-2.4,8.53,0.0,55,-2.392231230016248
329,16.545763299999635,-2.4,7.99,0.0,55,-2.409168318589884
330,16.592363199999454,-2.4,7.44,0.0,55,-2.389392803531778
331,16.638672199999746,-2.4,8.42,0.0,55,-2.412061844769888
332,16.68542720000005,-2.4,7.66,0.0,55,-2.386494436457923
333,16.733615799999825,-2.4,8.09,0.0,55,-2.4149089259768997
334,16.796616300000096,-2.4,7.55,0.0,55,-2.383759624030233
