,time,angle,pressure,set_point,motor_speed,Filtered_angle
0,0.092748400000346,-0.19,7.33,0.0,44,-0.19000002310623312
1,0.1393325000008189,0.6,6.13,0.0,44,-0.027115464279673592
2,0.1863161000001127,0.6,6.24,0.0,44,0.12828423978801054
3,0.2324164999990898,0.6,6.46,0.0,41,0.26968467910547256
4,0.2799291999999695,0.6,7.11,0.0,41,0.3922349169298796
5,0.3268829999997251,0.6,6.9,0.0,41,0.4930534091629397
6,0.3750201999991986,0.6,7.33,0.0,41,0.5711987579411304
7,0.4222731999998359,0.6,7.44,0.0,41,0.627414454982702
8,0.4691115000005084,0.6,7.44,0.0,41,0.663748712631463
9,0.5170534999997471,0.6,6.57,0.0,41,0.6831288263046742
10,0.5638290999995661,0.6,6.24,0.0,41,0.6889483359677094
11,0.6107332999999926,0.6,6.68,0.0,41,0.6847058360506969
12,0.6588867999998911,0.6,6.79,0.0,41,0.6737175170733014
13,0.7189376999995147,0.6,7.33,0.0,41,0.6589119151727929
14,0.7657218000003922,0.6,7.11,0.0,41,0.6427050571690901
15,0.8123620999995183,0.6,7.55,0.0,41,0.6269470948046165
16,0.8596567000004143,0.6,7.44,0.0,41,0.6129272902843714
17,0.9073585000005552,0.6,6.35,0.0,41,0.6014223817796297
18,0.9541994999999588,0.6,6.35,0.0,40,0.5927733942964234
19,1.0026221999996778,0.6,7.11,0.0,40,0.5869773344435547
20,1.0486156000006304,0.6,7.66,0.0,40,0.5837824211619809
21,1.0958157000004576,0.6,6.35,0.0,40,0.5827781298828025
22,1.1433123000006162,0.6,6.57,0.0,40,0.5834740204704284
23,1.1890505999999732,0.6,7.22,0.0,40,0.5853638249039526
24,1.2381569999997737,0.6,7.66,0.0,40,0.5879734205461385
25,1.2826989999994112,0.6,6.46,0.0,40,0.590893017542718
26,1.3293018999993365,0.6,6.79,0.0,40,0.5937951165055766
27,1.375326400000631,0.6,7.44,0.0,40,0.5964405659100526
28,1.4231137999995551,0.6,7.55,0.0,40,0.5986754219401348
29,1.4703246999997646,0.6,6.79,0.0,40,0.600421361039433
30,1.5180471999992733,0.6,7.33,0.0,40,0.6016621994702168
31,1.5800970000000234,0.6,7.77,0.0,40,0.6024287159127051
32,1.6263151000002836,0.6,7.66,0.0,40,0.6027835259355392
33,1.6733879000003071,0.6,6.68,0.0,40,0.6028072824469558
34,1.720972499999334,0.6,7.44,0.0,40,0.6025870213913503
35,1.7690423999993072,0.6,7.77,0.0,40,0.6022070700719432
36,1.815697599999112,0.6,6.68,0.0,40,0.6017426063301657
37,1.8604340000001685,0.6,7.44,0.0,40,0.6012557087245776
38,1.9086035000000263,0.6,7.88,0.0,40,0.6007935700516845
39,1.955555000000459,0.6,7.0,0.0,40,0.6003884516497509
40,2.003227799999877,0.6,7.44,0.0,40,0.6000589223113132
41,2.0510033999999,0.6,7.88,0.0,40,0.5998119395738338
42,2.113251099999616,0.6,7.0,0.0,40,0.5996453785511594
43,2.160947899999883,0.6,7.22,0.0,40,0.5995506811245238
44,2.2085542000004352,0.6,7.88,0.0,40,0.5995153748515226
45,2.2870820999996795,0.6,7.88,0.0,40,0.5995252873042763
46,2.345976200000223,0.6,7.33,0.0,40,0.5995663511299697
47,2.393722000000708,0.6,7.11,0.0,40,0.5996259537657437
48,2.4409197000004497,0.6,7.88,0.0,40,0.5996938314189743
49,2.487051399999473,0.6,7.77,0.0,40,0.5997625394130693
50,2.5342995999999403,0.6,7.44,0.0,40,0.5998275514286915
51,2.580439199999091,0.6,7.99,0.0,40,0.5998870505966581
52,2.627101300000504,0.6,7.0,0.0,40,0.5999414783906807
53,2.6749275000001944,0.6,7.55,0.0,40,0.5999929055411524
54,2.721042600000146,0.6,8.09,0.0,40,0.6000442852989474
55,2.768474399999832,0.6,7.33,0.0,39,0.6000986454667212
56,2.8149150000008376,0.6,7.77,0.0,39,0.6001582732407
57,2.8648360000006505,0.6,7.44,0.0,39,0.6002239469131928
58,2.9108111999994435,0.6,7.88,0.0,39,0.6002942709449334
59,2.9728613999996014,0.6,7.44,0.0,39,0.600365175114583
60,3.0208297000008315,0.6,7.77,0.0,39,0.6004296429449284
61,3.0808541999995214,0.6,7.44,0.0,39,0.6004777373204001
62,3.126667799999268,0.6,7.66,0.0,39,0.6004969896204515
63,3.174767399999837,0.6,7.0,0.0,39,0.6004732100462961
64,3.2226883000003,0.6,7.66,0.0,39,0.6003917584375136
65,3.2682676000003994,0.6,6.9,0.0,39,0.6002392845181281
66,3.31567189999987,0.6,7.66,0.0,39,0.6000059027831692
67,3.360865799999374,0.6,7.11,0.0,39,0.5996877100288609
68,3.407641899999362,0.6,7.77,0.0,39,0.5992894844641538
69,3.4545347999992373,0.6,7.22,0.0,39,0.5988273281654309
70,3.5018359999994573,0.6,7.66,0.0,39,0.5983309355169333
71,3.562989000000016,0.6,7.44,0.0,39,0.5978450979298967
72,3.609764700000596,0.6,7.77,0.0,39,0.5974300006972886
73,3.6567297000001417,0.6,7.22,0.0,39,0.5971598444620083
74,3.703989600000568,0.6,7.88,0.0,39,0.5971193457877408
75,3.750662099999317,0.6,7.44,0.0,39,0.5973977530108245
76,3.811471499999243,0.6,7.99,0.0,39,0.5980801674869725
77,3.85834480000085,0.6,7.44,0.0,39,0.5992361952993747
78,3.905431499999395,0.6,8.09,0.0,39,0.6009062730458501
79,3.954254399999627,0.6,7.55,0.0,39,0.6030864073200298
80,3.999834899999769,0.6,8.09,0.0,39,0.6057125236023079
81,4.047063199999684,0.6,7.44,0.0,39,0.6086461058941569
82,4.108151899999939,0.6,6.9,0.0,39,0.6116632784715749
83,4.16912720000073,0.6,7.55,0.0,39,0.6144498759654401
84,4.220136500000081,0.6,7.66,0.0,39,0.6166052950712195
85,4.26386199999979,0.6,7.33,0.0,39,0.6176579388910014
86,4.310364099999788,0.6,7.99,0.0,39,0.6170947686527555
87,4.3570431000007375,0.6,7.44,0.0,39,0.6144067887326157
88,4.404731700000411,0.6,7.88,0.0,39,0.6091511483584107
89,4.455334300000686,0.6,7.55,0.0,39,0.6010289170837428
90,4.514805299999352,0.6,7.0,0.0,39,0.5899754974596589
91,4.560684699999911,0.6,7.44,0.0,39,0.5762581556034146
92,4.625169000000824,0.6,7.0,0.0,38,0.5605724330830232
93,4.670240199999171,0.6,7.44,0.0,38,0.5441264933339429
94,4.717952000000878,0.6,7.99,0.0,38,0.5287000866299881
95,4.763576199999079,0.6,7.44,0.0,38,0.5166632125511977
96,4.811544099999082,0.6,8.09,0.0,38,0.5109392163058907
97,4.858014400000684,0.6,7.55,0.0,38,0.5148985220581161
98,4.905629999999292,0.6,6.79,0.0,38,0.5321730371028014
99,5.987370999999257,0.6,7.55,10.0,79,0.566387962545283
100,6.046241699999882,0.6,9.08,10.0,79,0.6208177119337553
101,6.092813100000058,0.6,8.09,10.0,80,0.6979860725489893
102,6.138911100000769,0.6,8.42,10.0,80,0.7992475830379238
103,6.21703239999988,0.6,8.53,10.0,81,0.9244069523163801
104,6.280212899999242,0.6,8.64,10.0,81,1.0714554393105926
105,6.329936500000258,0.6,9.4,10.0,81,1.236526302845261
106,6.39111149999917,1.41,9.51,10.0,81,1.4141814560524386
107,6.438006200000018,2.26,9.62,10.0,79,1.598084876538355
108,6.486104800000248,2.35,9.62,10.0,79,1.7819518192819512
109,6.534808799999155,2.35,10.17,10.0,76,1.960483161078845
110,6.5790519999991375,2.35,10.49,10.0,76,2.1299846099541493
111,6.625794600000518,2.35,9.08,10.0,77,2.288546233973155
112,6.671751199999562,2.35,9.18,10.0,77,2.435845310186528
113,6.71960720000061,2.35,10.27,10.0,78,2.5727203179565654
114,6.766729700000724,2.35,9.4,10.0,78,2.7006745297232273
115,6.813237300000765,2.35,9.51,10.0,78,2.82145856074455
116,6.8596529999995255,3.34,9.84,10.0,78,2.9368555978365105
117,6.906900300000416,3.35,9.62,10.0,78,3.048705939700205
118,6.953808300000674,3.35,9.95,10.0,75,3.1590588614472055
119,6.999321299999792,3.35,10.38,10.0,75,3.270254877461881
120,7.061531800000012,3.35,11.26,10.0,76,3.384815391736858
121,7.112566600000719,3.35,10.06,10.0,76,3.505156841897094
122,7.155654199999844,3.35,10.27,10.0,76,3.633226961993081
123,7.203966700000819,3.35,10.93,10.0,76,3.7701805119076086
124,7.248192200000631,4.21,10.49,10.0,74,3.916203895769936
125,7.296148800000083,4.21,11.58,10.0,74,4.0705374462485056
126,7.343048999999155,4.21,10.49,10.0,74,4.231630244030325
127,7.40493509999942,4.21,10.6,10.0,74,4.397302932179744
128,7.451785699999164,4.21,11.91,10.0,74,4.564869664339862
129,7.498590799999874,5.04,10.71,10.0,75,4.731285754584377
130,7.563373000000865,5.13,10.82,10.0,75,4.893392792174502
131,7.607607500000086,5.13,11.69,10.0,71,5.048223192947627
132,7.6560257000001,5.13,10.93,10.0,71,5.19324662129031
133,7.71950680000009,5.13,11.8,10.0,72,5.326494906206328
134,7.7685605000006035,5.13,11.04,10.0,72,5.446620059467598
135,7.811718499999188,5.95,12.13,10.0,72,5.552995864413675
136,7.859043300000849,5.95,12.24,10.0,72,5.645917567886745
137,7.905786299999818,5.95,11.15,10.0,70,5.726826432091091
138,7.95412270000088,5.95,12.02,10.0,70,5.798407990706518
139,7.999562299999525,5.95,11.26,10.0,70,5.864464829074156
140,8.048373699999502,5.95,11.36,10.0,70,5.9295699748262924
141,8.095782300000792,5.95,12.46,10.0,70,5.99856309065124
142,8.14562830000068,5.95,11.36,10.0,70,6.075959577944125
143,8.1925396000006,5.95,11.58,10.0,71,6.165341924117398
144,8.239186799999516,5.95,12.35,10.0,71,6.2688063053945235
145,8.286909200000082,5.95,11.69,10.0,71,6.386545250618818
146,8.334037700000408,5.95,12.89,10.0,71,6.516658180774843
147,8.3791913999994,6.71,12.67,10.0,71,6.6552824694349635
148,8.426395899999989,6.71,11.8,10.0,69,6.797090577835969
149,8.474816899999496,7.42,12.67,10.0,69,6.9360907156749825
150,8.521521099999518,7.5,11.91,10.0,66,7.0665587327985095
151,8.58379640000021,7.5,12.89,10.0,66,7.1838844839739195
152,8.631986000000325,7.5,11.8,10.0,66,7.285153829505063
153,8.707651700000497,7.5,11.91,10.0,66,7.36938932346107
154,8.753834799999822,7.5,12.13,10.0,66,7.437479770786842
155,8.802054399999179,7.5,12.89,10.0,66,7.4918814286739135
156,8.863279299999704,7.5,12.35,10.0,66,7.536175311552751
157,8.91071870000087,7.5,12.67,10.0,66,7.57455117067148
158,8.954468399999314,7.5,12.13,10.0,67,7.6112757274627505
159,9.001087799999368,7.5,12.24,10.0,67,7.650192986027919
160,9.048004800000854,7.5,12.67,10.0,67,7.69429853532991
161,9.09479900000042,7.5,12.24,10.0,67,7.745427777035241
162,9.141385799999624,7.5,12.67,10.0,67,7.804099608990493
163,9.188560000000509,7.5,12.35,10.0,67,7.869561486510769
164,9.235067400000844,8.34,13.22,10.0,67,7.940074659916406
165,9.281421699999555,8.35,12.78,10.0,64,8.013418628738316
166,9.329632000000856,8.35,12.46,10.0,64,8.087479873230821
167,9.374150600000576,8.35,12.35,10.0,64,8.160726954736823
168,9.436292599999431,8.35,13.11,10.0,64,8.232442509402032
169,9.48405620000085,8.35,12.46,10.0,64,8.302703913616554
170,9.529198700000052,8.35,13.11,10.0,64,8.372171869716839
171,9.57771320000029,8.35,12.67,10.0,64,8.441759228820374
172,9.63752999999997,8.35,12.46,10.0,64,8.512251475686758
173,9.68480930000078,8.35,12.67,10.0,65,8.58394968076439
174,9.731607499999882,8.35,12.56,10.0,65,8.656406752962885
175,9.77872799999932,8.35,12.56,10.0,65,8.728328391535786
176,9.82735689999936,9.03,13.44,10.0,65,8.797700083430978
177,9.875911999999516,9.11,12.67,10.0,65,8.862146723497213
178,9.922137400000793,9.11,12.67,10.0,62,8.919427465249159
179,9.96761289999995,9.11,13.54,10.0,62,8.967900546200255
180,10.015061500000227,9.11,13.54,10.0,62,9.006835310979607
181,10.061501899999712,9.11,12.67,10.0,62,9.03654476760885
182,10.110004300000584,9.11,12.78,10.0,62,9.058368809881877
183,10.156334100000096,9.11,12.78,10.0,62,9.07454641378098
184,10.202857599999334,9.11,13.11,10.0,62,9.088007815280003
185,10.24833260000014,9.11,13.0,10.0,62,9.102110376155608
186,10.3103456000008,9.11,12.89,10.0,62,9.12033665281062
187,10.357891699999527,9.11,12.78,10.0,62,9.145970755353414
188,10.404215900000054,9.11,13.22,10.0,62,9.18176982271091
189,10.45240190000004,9.11,13.0,10.0,62,9.229651454556796
190,10.503059500000743,9.11,13.0,10.0,62,9.290425028875271
191,10.544833899999505,9.11,12.89,10.0,62,9.363604476074686
192,10.593169800000396,9.11,13.76,10.0,62,9.447351463586577
193,10.640981900000044,9.11,13.87,10.0,62,9.538610013047153
194,10.687331600000109,10.04,13.33,10.0,62,9.633490436426161
195,10.735543999999209,10.04,13.22,10.0,62,9.727896872139402
196,10.796158400000422,10.04,13.0,10.0,59,9.818267573906754
197,10.841769200000272,10.04,12.89,10.0,59,9.902227222962953
198,10.888561499999923,10.04,13.0,10.0,59,9.979023849966891
199,11.956985200000418,10.84,13.11,20.0,59,10.049739236480127
200,12.00290479999967,10.17,13.22,20.0,59,10.117277213792564
201,12.048912099999145,10.1,13.11,20.0,99,10.186083396201285
202,12.095728099999178,10.1,14.53,20.0,99,10.261582643112554
203,12.14182830000027,10.1,13.98,20.0,99,10.349444424056408
204,12.1892325000008,10.1,14.42,20.0,100,10.454854554124509
205,12.237044699999387,10.1,13.54,20.0,100,10.58194114455243
206,12.28547459999936,11.03,14.42,20.0,98,10.733449884164804
207,12.34718729999986,11.03,14.53,20.0,98,10.910691234084622
208,12.394263800000772,11.03,13.76,20.0,98,11.113669785545452
209,12.44134909999957,11.03,13.87,20.0,98,11.341256245407365
210,12.487658100000772,11.93,13.87,20.0,96,11.591346729726025
211,12.534672600000704,11.93,15.29,20.0,96,11.861040280316349
212,12.595059400000537,11.93,14.96,20.0,96,12.146835183310131
213,12.641738899999837,12.79,14.96,20.0,96,12.444796871145908
214,12.68918119999944,12.8,14.2,20.0,94,12.750672533739593
215,12.734904999999344,12.8,14.2,20.0,94,13.059948387896753
216,12.79603750000024,12.8,15.18,20.0,94,13.367859330947411
217,12.85803759999908,13.55,15.07,20.0,94,13.669437953488835
218,12.907345199999328,14.38,15.07,20.0,89,13.959743812655201
219,12.98341210000035,14.39,15.4,20.0,89,14.234309442124712
220,13.025714400000652,14.39,14.53,20.0,89,14.489669692185965
221,13.076137500000186,15.24,14.63,20.0,89,14.723808982334832
222,13.119194799999605,15.33,14.74,20.0,86,14.936448659235097
223,13.165487099999154,15.33,14.74,20.0,86,15.12912836003309
224,13.211463199999343,15.33,14.74,20.0,86,15.305014012990265
225,13.257496899999753,15.33,14.74,20.0,86,15.468418591930542
226,13.305905900000653,15.33,14.74,20.0,86,15.624130780159495
227,13.352402299999085,15.33,14.96,20.0,87,15.77671044378406
228,13.399735599999984,16.03,14.96,20.0,87,15.92990703039022
229,13.445886299999984,16.11,14.85,20.0,84,16.08629399271971
230,13.51556840000012,16.11,14.85,20.0,84,16.247102830347895
231,13.553985799999282,16.11,15.83,20.0,84,16.41217349393955
232,13.60225309999987,16.11,16.16,20.0,84,16.579989062875466
233,13.649316900000484,16.95,15.07,20.0,81,16.747858544164078
234,13.697487400000682,16.95,15.18,20.0,81,16.91231526201375
235,13.762219099999127,16.95,15.07,20.0,82,17.069698252014664
236,13.80821560000004,17.75,15.94,20.0,82,17.21680590636597
237,13.855951999999888,17.75,15.29,20.0,79,17.35151069231431
238,13.903068800000256,17.75,15.18,20.0,79,17.473222642982332
239,13.950009800000773,17.75,15.29,20.0,79,17.583082880816466
240,13.995948199999477,17.75,16.27,20.0,79,17.683833422844923
241,14.046337499999936,17.75,15.29,20.0,79,17.779411302102567
242,14.0931913000004,17.75,15.51,20.0,79,17.874367371751813
243,14.140185199999904,17.75,15.62,20.0,79,17.973214456050425
244,14.18780390000029,17.75,15.4,20.0,79,18.07980473797165
245,14.23283579999952,17.75,15.4,20.0,79,18.196835621773463
246,14.28229029999966,18.51,16.38,20.0,77,18.3255747661186
247,14.330649199999243,18.52,16.38,20.0,77,18.465841826975595
248,14.37516340000002,18.52,15.4,20.0,77,18.616185195194078
249,14.437400400000117,18.52,16.16,20.0,77,18.774141373608373
250,14.48463140000058,19.25,15.72,20.0,77,18.936523012648063
251,14.531607499999154,19.33,15.51,20.0,77,19.0997409273648
252,14.578638400000273,19.33,15.62,20.0,74,19.260123946171237
253,14.62486539999918,19.33,15.62,20.0,74,19.414148408416573
254,14.6710578000002,19.33,15.51,20.0,74,19.558541357120628
255,14.719455399999788,19.33,16.6,20.0,74,19.690328727779576
256,14.767015600000375,20.16,15.62,20.0,74,19.806949473191974
257,14.814291200000298,20.16,15.72,20.0,70,19.90649939745112
258,14.87435220000043,20.16,15.62,20.0,70,19.988039412844525
259,14.935317100000248,20.16,16.49,20.0,70,20.051822606697034
260,14.983628600000884,20.16,15.72,20.0,70,20.099343487394872
261,15.029091000000337,20.16,15.94,20.0,70,20.133213376704326
262,15.076410699999542,20.16,15.72,20.0,70,20.156914396435866
263,15.124083900000189,20.16,16.49,20.0,70,20.174481993190263
264,15.170548699999928,20.16,15.72,20.0,70,20.19015279926666
265,15.217668600000252,20.16,15.72,20.0,70,20.208004766642564
266,15.264980300000389,20.16,15.72,20.0,70,20.231610465157306
267,15.312003499999264,20.16,15.83,20.0,70,20.263722401906385
268,15.359088499999416,20.16,15.72,20.0,70,20.306011045655186
269,15.405055400000492,20.16,15.83,20.0,70,20.358881441815477
270,15.451416699999754,20.16,16.27,20.0,70,20.42140209258805
271,15.498207299999194,20.16,15.83,20.0,70,20.491389121074278
272,15.59097230000043,20.85,15.72,20.0,70,20.56568755325889
273,15.637880099999164,20.93,15.83,20.0,67,20.64064466419212
274,15.684927199999947,20.93,15.83,20.0,67,20.71267283089638
275,15.730659499999092,20.93,15.83,20.0,67,20.778737501125267
276,15.777737099999284,20.93,15.83,20.0,67,20.836654736119737
277,15.83953079999992,20.93,15.83,20.0,67,20.885184557153167
278,15.885668400000212,20.93,16.05,20.0,67,20.923966735554266
279,15.963659499999268,20.93,16.6,20.0,67,20.953355326887998
280,16.011105899999166,20.93,16.38,20.0,67,20.97420067597134
281,16.058243600000424,20.93,15.94,20.0,67,20.987618302389603
282,16.10479569999916,20.93,15.94,20.0,67,20.994774959160875
283,16.15152990000024,20.93,15.94,20.0,67,20.996713729916795
284,16.198584100000517,20.93,15.94,20.0,67,20.994232571757074
285,16.245941099999982,20.93,15.83,20.0,67,20.987824301723823
286,16.30894470000021,20.93,15.83,20.0,66,20.97768057896727
287,16.368713699999716,20.93,16.38,20.0,66,20.963757750006195
288,16.416363099999217,20.93,15.94,20.0,66,20.945898240337772
289,16.463030700000672,20.93,15.94,20.0,66,20.923997233838598
290,16.51097579999987,20.93,15.94,20.0,66,20.898200485522125
291,16.573865000000296,20.93,15.83,20.0,66,20.869115181758506
292,16.62082770000052,20.93,15.83,20.0,66,20.8380118711706
293,16.670368999999482,20.93,16.71,20.0,66,20.806991901403023
294,16.717188099999476,20.93,15.83,20.0,66,20.77909197057015
295,16.762022900000375,20.93,15.94,20.0,66,20.758295980963684
296,16.809672199999113,20.93,16.49,20.0,66,20.749425157998743
297,16.856178399999408,20.93,16.49,20.0,66,20.757881244315175
298,16.903979299999264,20.93,15.94,20.0,66,20.789225362898385
299,17.986735899999985,19.97,15.72,30.0,65,20.848602755057883
300,18.04782720000003,20.89,15.62,30.0,110,20.94010244758528
301,18.094243800000186,20.9,15.83,30.0,107,21.066227319370995
302,18.20352029999958,21.13,15.94,30.0,107,21.22761822439607
303,18.243974099999832,21.14,15.83,30.0,107,21.423039003560834
304,18.306422100000415,21.85,16.71,30.0,107,21.649553597447593
305,18.353838400000317,21.93,16.71,30.0,104,21.90283956271036
306,18.401171100000283,21.93,16.81,30.0,104,22.177584472569098
307,18.446142200000395,22.64,16.16,30.0,105,22.467912225762753
308,18.494087600000057,22.72,17.36,30.0,105,22.767824747157807
309,18.539686599999182,23.47,16.16,30.0,103,23.07165839996425
310,18.5875632999996,23.56,16.27,30.0,103,23.3745096218879
311,18.63549559999956,23.56,16.27,30.0,100,23.672547816994292
312,18.68109170000025,24.38,17.58,30.0,100,23.96316157294188
313,18.728851399999257,24.39,16.71,30.0,100,24.244938682924726
314,18.77567900000031,24.39,17.58,30.0,97,24.51749037327639
315,18.825731499999165,24.39,17.03,30.0,97,24.781130619616174
316,18.8698375999993,25.09,16.49,30.0,98,25.036485082495748
317,18.91623790000085,25.16,16.6,30.0,98,25.28415774810024
318,18.962875400000485,25.16,17.14,30.0,95,25.524535768755054
319,19.012060900000503,26.02,16.6,30.0,95,25.757739596602327
320,19.05876419999913,26.02,16.6,30.0,92,25.983699609455538
321,19.120527900000525,26.02,16.6,30.0,92,26.202315672606172
322,19.168203400000493,26.82,16.71,30.0,90,26.413633390992594
323,19.215081300000747,26.83,17.14,30.0,90,26.61798462128053
324,19.26158629999918,26.83,16.71,30.0,90,26.81604133763816
325,19.31006659999912,26.83,16.81,30.0,90,27.008728086901677
326,19.371078899999706,26.83,16.71,30.0,90,27.19700739371203
327,19.41919059999964,27.52,17.03,30.0,90,27.381649842511795
328,19.47932890000084,27.6,17.47,30.0,90,27.563104004103845
329,19.54182209999999,27.6,16.81,30.0,87,27.741485865567615
330,19.58916379999937,27.6,17.03,30.0,87,27.91663785529866
331,19.635263000000123,28.5,17.69,30.0,87,28.088238035564416
332,19.682383299999856,28.51,17.69,30.0,87,28.255969884508655
333,19.7434403999996,28.51,17.69,30.0,84,28.41969688353705
334,19.79059749999942,28.51,17.14,30.0,84,28.579527290289604
335,19.837159799999423,28.51,17.9,30.0,84,28.73572219692094
336,19.88543860000027,28.51,17.58,30.0,84,28.88852474180848
337,19.93230349999976,29.33,17.14,30.0,84,29.0380440214186
