,time,angle,pressure,set_point,motor_speed,Filtered_angle
0,0.0482755999983055,-0.18,5.7,0.0,36,-0.18018608417255055
1,0.0952382999967085,-0.18,4.82,0.0,36,-0.18021980837412033
2,0.1429618999973172,-0.18,5.59,0.0,36,-0.18024041780998762
3,0.1887168999965069,-0.18,5.59,0.0,36,-0.1802407360671189
4,0.2464880000043194,-0.18,5.15,0.0,36,-0.18021331416138525
5,0.293461399996886,-0.18,5.7,0.0,36,-0.18015119374016622
6,0.3405889999994542,-0.18,5.37,0.0,36,-0.18004889258004694
7,0.3891053999977885,-0.18,5.26,0.0,36,-0.17990357958854997
8,0.4548113000055309,-0.18,5.91,0.0,36,-0.17971637261642923
9,0.4988332999928389,-0.18,5.7,0.0,36,-0.1794936538235182
10,0.5445270999916829,-0.18,5.26,0.0,36,-0.17924825688073232
11,0.6093958999990718,-0.18,5.81,0.0,36,-0.17900034192893616
12,0.6742006999993464,-0.18,5.37,0.0,36,-0.17877774316628936
13,0.7159924000006868,-0.18,4.39,0.0,36,-0.17861555647503424
14,0.762677699996857,-0.18,5.59,0.0,36,-0.17855473762569138
15,0.8273011999990558,-0.18,4.93,0.0,36,-0.1786395124893304
16,0.8725010999914957,-0.18,4.72,0.0,36,-0.17891346593977672
17,0.9184873000049264,-0.18,5.7,0.0,36,-0.17941428076987131
18,0.9794486000027972,-0.18,4.72,0.0,36,-0.18016724430169634
19,1.0424864999949932,-0.18,4.72,0.0,36,-0.18117782679717698
20,1.1024758999992628,-0.18,5.26,0.0,36,-0.1824238554111815
21,1.1635912000056123,-0.18,5.7,0.0,36,-0.18384804708895675
22,1.2107117999985348,-0.18,5.81,0.0,36,-0.18535190321067047
23,1.2587797000014689,-0.18,5.04,0.0,36,-0.18679218031675165
24,1.305033700002241,-0.18,5.81,0.0,36,-0.1879813005077628
25,1.3520615000015823,-0.18,4.5,0.0,36,-0.18869311244079978
26,1.3980400000000373,-0.18,5.7,0.0,36,-0.188675317028215
27,1.443870000002789,-0.18,5.48,0.0,36,-0.18766959022756746
28,1.4924877000012202,-0.18,5.59,0.0,36,-0.18543993471911377
29,1.5382834000047296,-0.18,5.81,0.0,36,-0.1818090521186957
30,1.5846465999929933,-0.18,4.82,0.0,36,-0.1767015476775724
31,1.64441939999233,-0.18,5.81,0.0,36,-0.17019158862580613
32,1.6912766000023112,-0.18,4.82,0.0,36,-0.1625512996790577
33,1.738971600003424,-0.18,5.26,0.0,36,-0.15429480082739663
34,1.7867819999955827,-0.18,5.91,0.0,36,-0.14621152476293336
35,1.8484567999985304,-0.18,5.04,0.0,36,-0.1393814906403098
36,1.895808000001125,-0.18,5.7,0.0,36,-0.1351647934893877
37,1.9411990999942643,-0.18,5.26,0.0,36,-0.13515795891711468
38,1.9886298999917928,-0.18,5.59,0.0,36,-0.14111128486881702
39,2.036070000001928,-0.18,5.91,0.0,36,-0.15480410430746866
40,2.0977414999943,-0.18,5.26,0.0,36,-0.17787926455582914
41,2.160790499998257,-0.18,5.81,0.0,36,-0.2116441550321405
42,2.20704459999979,-0.18,5.81,0.0,36,-0.2568533247702402
43,2.2521543000038946,-0.18,5.48,0.0,36,-0.31349695266706734
44,2.3129534000036074,-0.18,5.91,0.0,36,-0.3806298157191119
45,2.376372300001094,-0.18,4.61,0.0,36,-0.45628639144653504
46,2.422988499994972,-0.18,5.48,0.0,36,-0.5375385907650023
47,2.4748776000051294,-0.98,5.91,0.0,36,-0.6207498399278417
48,2.519289599993499,-0.98,5.48,0.0,36,-0.7020240042816134
49,2.577501299994765,-0.98,6.24,0.0,44,-0.7777391382704026
50,2.625348200002918,-0.98,5.81,0.0,44,-0.8449946993618899
51,2.672964500001399,-0.98,6.24,0.0,44,-0.9018622432829119
52,2.735493600004702,-0.98,6.24,0.0,44,-0.9474381727022902
53,2.78171690000454,-0.98,6.02,0.0,44,-0.9817524091003133
54,2.830922900000587,-0.98,6.02,0.0,44,-1.0055897406367684
55,2.8794939999934286,-0.98,6.57,0.0,45,-1.0202698814346003
56,2.9254578999971272,-0.98,6.9,0.0,45,-1.027421463879915
57,2.9676539999927627,-0.98,7.11,0.0,45,-1.02877500462852
58,3.0304198999947403,-0.98,7.11,0.0,45,-1.0259908709286938
59,3.078884400005336,-0.98,7.11,0.0,45,-1.0205307513975264
60,3.122639799999888,-0.98,7.22,0.0,45,-1.0135752325566196
61,3.1701615000056336,-0.98,7.0,0.0,45,-1.005985760215486
62,3.217303500001435,-0.98,7.22,0.0,45,-0.9983063565748551
63,3.2635791999928188,-0.98,6.35,0.0,45,-0.9907987187838005
64,3.3116556000022683,-0.98,5.91,0.0,45,-0.9835034499817709
65,3.377279899999849,-0.98,5.91,0.0,45,-0.9763198740165937
66,3.42108339999686,-0.98,5.91,0.0,45,-0.9690968945566892
67,3.4825895999965724,-0.98,6.35,0.0,45,-0.9617274689163332
68,3.534531900004368,-0.98,6.9,0.0,45,-0.9542393422382012
69,3.5808193999982905,-0.98,5.91,0.0,45,-0.9468746805400254
70,3.626918399997521,-0.98,5.91,0.0,45,-0.9401511932055521
71,3.6690082999994047,-0.98,6.24,0.0,45,-0.9348973745429449
72,3.729459599999245,-0.98,6.79,0.0,45,-0.9322548226626414
73,3.776703900002758,-0.98,6.24,0.0,45,-0.9336414709813984
74,3.824802400005865,-0.98,6.57,0.0,45,-0.940671282353383
75,3.873041800005012,-0.98,7.11,0.0,45,-0.9550287952064215
76,3.918205099995248,-0.98,7.44,0.0,45,-0.9783011218585498
77,3.963657899992541,-0.98,7.44,0.0,46,-1.0117757460476338
78,4.026939999996102,-0.98,7.22,0.0,46,-1.056219789777704
79,4.072356299991952,-0.98,7.44,0.0,46,-1.1116651959093289
80,4.1184854000021005,-0.98,7.44,0.0,46,-1.1772341873960455
81,4.179171099996893,-0.98,6.13,0.0,46,-1.251049897319899
82,4.227029200003017,-0.98,6.13,0.0,46,-1.3302875056500696
83,4.273636700003408,-1.76,6.02,0.0,46,-1.4114184029816255
84,4.322464400000172,-1.76,6.57,0.0,46,-1.4906459848569455
85,4.368398099992191,-1.76,7.11,0.0,54,-1.5644258409392642
86,4.429442699998617,-1.76,6.57,0.0,54,-1.6299032622687029
87,4.478962299996056,-1.76,7.99,0.0,54,-1.6851608090916579
88,4.527544099997613,-1.76,7.77,0.0,54,-1.7292744846386505
89,4.572455899993656,-1.76,7.44,0.0,54,-1.7622309128022118
90,4.618446199994651,-1.76,7.22,0.0,54,-1.7847606320570557
91,4.665154699992854,-1.76,7.22,0.0,54,-1.7981320331396764
92,4.711243900004774,-1.76,7.11,0.0,54,-1.8039397517795397
93,4.758686100001796,-1.76,7.99,0.0,54,-1.803911199894114
94,4.802937000000384,-1.76,8.2,0.0,54,-1.7997459164114367
95,4.849253899999894,-1.76,8.2,0.0,54,-1.7929948839198384
96,4.894855599995935,-1.76,8.42,0.0,55,-1.784981047253698
97,4.942486799991457,-1.76,8.31,0.0,55,-1.7767579859101952
98,4.988927300000796,-1.76,7.44,0.0,55,-1.7691009141734624
99,5.0353829999949085,-1.76,7.22,0.0,55,-1.7625227089912616
100,5.082725799991749,-1.76,7.11,0.0,55,-1.7573072480752765
101,5.129156399998465,-1.76,7.11,0.0,55,-1.7535527170249492
102,5.176542799992603,-1.76,7.66,0.0,55,-1.7512184626481362
103,5.236457999999402,-1.76,8.42,0.0,55,-1.7501702064335116
104,5.283135499994387,-1.76,7.66,0.0,55,-1.75021980263132
105,5.344921900003101,-1.76,7.44,0.0,55,-1.7511570883652223
106,5.39148479999858,-1.76,8.64,0.0,55,-1.752772630160821
107,5.438506899998174,-1.76,8.53,0.0,56,-1.7548712620583489
108,5.487486800004263,-1.76,7.77,0.0,56,-1.7572772061419115
109,5.533224700004212,-1.76,7.66,0.0,56,-1.7598322607945702
110,5.579124800002319,-1.76,7.55,0.0,56,-1.7623890434454423
111,5.626825500003179,-1.76,7.66,0.0,56,-1.7648015974422595
112,5.672236800004612,-1.76,8.86,0.0,56,-1.7669158310320003
113,5.733213700004853,-1.76,8.64,0.0,56,-1.768562259226728
114,5.781141999992542,-1.76,7.88,0.0,56,-1.76955336788559
115,5.8270865999948,-1.76,8.64,0.0,56,-1.7696876071542817
116,5.877730799998972,-1.76,9.08,0.0,56,-1.7687615363612301
117,5.9261591999966186,-1.76,9.08,0.0,56,-1.7665909712914862
118,5.972840300004464,-1.76,9.18,0.0,56,-1.7630411193137492
119,6.0178820000001,-1.76,9.08,0.0,56,-1.758064632870274
120,6.064637200004654,-1.76,8.31,0.0,57,-1.7517452934196363
121,6.108610299997963,-1.76,8.31,0.0,57,-1.744343711719353
122,6.154458299992257,-1.76,8.2,0.0,57,-1.7363400887125362
123,6.203725300001679,-1.76,8.09,0.0,57,-1.7284678579969603
124,6.249055499996757,-1.76,8.2,0.0,57,-1.7217311021025055
125,6.294542200004798,-1.76,8.75,0.0,57,-1.7173982153564196
126,6.341149400002905,-1.76,8.75,0.0,57,-1.716964619448159
127,6.387154800002463,-1.76,8.75,0.0,57,-1.722078679424777
128,6.435046999991755,-1.76,9.29,0.0,57,-1.7344275615991962
129,6.4831204999936745,-1.76,9.29,0.0,57,-1.755583822715765
130,6.530043199993088,-1.76,9.29,0.0,57,-1.7868191466260015
131,6.577747399991495,-1.76,9.18,0.0,57,-1.8288988611946064
132,6.626048099991749,-1.76,8.64,0.0,57,-1.8818795348617612
133,6.667950499992003,-1.76,8.53,0.0,57,-1.9449417523305856
134,6.714777100001811,-1.76,8.64,0.0,58,-2.01630059483337
135,6.760547199999564,-1.76,8.53,0.0,58,-2.0932467149100185
136,6.840890799998306,-2.45,8.86,0.0,58,-2.17236948183389
137,6.903338100004476,-2.52,8.64,0.0,66,-2.2499658221536434
138,6.949813899991568,-2.52,9.18,0.0,66,-2.322539970072821
139,6.994640599994455,-2.52,8.75,0.0,66,-2.387236928798523
140,7.093284200003836,-2.52,10.17,0.0,66,-2.4420999840386624
141,7.13581379999232,-2.52,9.95,0.0,66,-2.4861415474870063
142,7.184715099996538,-2.52,9.95,0.0,66,-2.519273703246028
143,7.243537400005152,-2.52,9.18,0.0,67,-2.5421520202656684
144,7.287567699997453,-2.52,9.29,0.0,67,-2.5559770309687675
145,7.336831799999345,-2.52,9.18,0.0,67,-2.562287309518392
146,7.382056200003717,-2.52,10.49,0.0,67,-2.5627681348052973
147,7.428354399991804,-2.52,9.18,0.0,67,-2.559090835536687
148,7.475892999995267,-2.52,9.4,0.0,67,-2.5527904394484886
149,7.524693700004718,-2.52,10.49,0.0,67,-2.5451833556954666
150,7.5705179999931715,-2.52,9.73,0.0,67,-2.5373225227107055
151,7.616439899997204,-2.52,10.6,0.0,67,-2.529984645080897
152,7.682071699993685,-2.52,10.27,0.0,68,-2.5236826292373102
153,7.730747299996437,-2.52,9.84,0.0,68,-2.518695866851355
154,7.772792599993409,-2.52,9.73,0.0,68,-2.5151113466687405
155,7.819267300001229,-2.52,9.62,0.0,68,-2.512869447181876
156,7.866454999995767,-2.52,10.93,0.0,68,-2.5118094464704295
157,7.912437699997099,-2.52,10.17,0.0,68,-2.511711091116191
158,7.95889470000111,-2.52,10.6,0.0,68,-2.5123298452292957
159,8.005498800004716,-2.52,10.82,0.0,68,-2.513424588420043
160,8.053888800001005,-2.52,10.06,0.0,68,-2.514777483296371
161,8.104899600002682,-2.52,9.84,0.0,69,-2.5162064586867228
162,8.14905049999652,-2.52,10.38,0.0,69,-2.517571251936337
163,8.192896699998528,-2.52,10.06,0.0,69,-2.5187742403241278
164,8.254207399993902,-2.52,11.04,0.0,69,-2.519757399206582
165,8.305462299991632,-2.52,10.82,0.0,69,-2.520496691226616
166,8.36126580000564,-2.52,11.04,0.0,69,-2.520995056968138
167,8.40598909999244,-2.52,10.17,0.0,69,-2.5212749808261656
168,8.46766409999691,-2.52,11.26,0.0,69,-2.521371379839038
169,8.515646400002879,-2.52,11.47,0.0,70,-2.5213253346853515
170,8.561828799996874,-2.52,10.71,0.0,70,-2.5211789709308774
171,8.607638799992856,-2.52,10.38,0.0,70,-2.5209716180789763
172,8.654839399998309,-2.52,11.04,0.0,70,-2.520737231096681
173,8.703137200005585,-2.52,10.49,0.0,70,-2.5205029558545
174,8.748749099991983,-2.52,11.26,0.0,70,-2.5202886544432284
175,8.80058779999672,-2.52,11.36,0.0,70,-2.520107174040024
176,8.847584000002826,-2.52,10.6,0.0,70,-2.519965137730509
177,8.894116399998893,-2.52,11.58,0.0,70,-2.519864050657107
178,8.94077250000555,-2.52,10.82,0.0,71,-2.5198015433672483
179,8.983090299996547,-2.52,10.6,0.0,71,-2.519772610234378
180,9.030553499993404,-2.52,10.93,0.0,71,-2.5197707392599487
181,9.076131699999678,-2.52,10.82,0.0,71,-2.5197888665246317
182,9.121199500004876,-2.52,12.02,0.0,71,-2.519820121303196
183,9.16702150000492,-2.52,11.04,0.0,71,-2.5198583547412627
184,9.214434199995594,-2.52,10.82,0.0,71,-2.519898465302289
185,9.261336399998982,-2.52,11.15,0.0,71,-2.519936547964715
186,9.308541599995806,-2.52,10.93,0.0,71,-2.519969901960132
187,9.354505299997982,-2.52,12.13,0.0,72,-2.5199969346197215
188,9.40321910000057,-2.52,11.36,0.0,72,-2.5200169977401807
189,9.463750800001437,-2.52,11.91,0.0,72,-2.5200301889297463
190,9.512140099992394,-2.52,11.15,0.0,72,-2.5200371447173295
191,9.577083800002583,-2.52,11.26,0.0,72,-2.5200388457298435
192,9.623812999998336,-2.52,11.15,0.0,72,-2.520036447710558
193,9.666446599992923,-2.52,12.13,0.0,72,-2.520031146117154
194,9.715043999996851,-2.52,11.26,0.0,72,-2.5200240768681668
195,9.761746499993023,-2.52,12.46,0.0,72,-2.5200162517020823
196,9.808195499994326,-2.52,11.58,0.0,73,-2.5200085236412364
197,9.853510100001586,-2.52,11.36,0.0,73,-2.520001576178364
198,9.899571100002504,-2.52,12.56,0.0,73,-2.5199959289241436
199,9.946580999996511,-2.52,11.47,0.0,73,-2.519991952426857
200,9.993140899998252,-2.52,12.56,0.0,73,-2.5199898855414924
201,10.040048099996056,-2.52,11.8,0.0,73,-2.519989849926789
202,10.106501100002788,-2.52,11.47,0.0,73,-2.519991857836405
203,10.153437500004657,-2.52,11.58,0.0,73,-2.5199958112096312
204,10.195605000000796,-2.52,12.56,0.0,73,-2.5200014920347877
205,10.258096000005024,-2.52,11.58,0.0,74,-2.520008545937816
206,10.304391900004704,-2.52,12.02,0.0,74,-2.5200164628219603
207,10.35301599999366,-2.52,11.69,0.0,74,-2.5200245600258366
208,10.39942560000054,-2.52,12.02,0.0,74,-2.520031974736919
209,10.447705400001723,-2.52,11.69,0.0,74,-2.520037673140369
210,10.510018000000857,-2.52,12.89,0.0,74,-2.52004048383197
211,10.558086399993044,-2.52,12.89,0.0,74,-2.52003916220941
212,10.60646710000583,-2.52,12.13,0.0,74,-2.520032490723736
213,10.65048399999796,-2.52,11.91,0.0,75,-2.520019416906595
214,10.69868210000277,-2.52,12.02,0.0,75,-2.5199992269415485
215,10.747884800002794,-2.52,12.02,0.0,75,-2.519971747274456
216,10.794386499997929,-2.52,12.78,0.0,75,-2.5199375605514023
217,10.851339600005304,-2.52,12.02,0.0,75,-2.5198982153950946
218,10.896532099999604,-2.52,12.02,0.0,75,-2.519856402737526
219,10.958930599997984,-2.52,13.0,0.0,75,-2.5198160653760002
220,11.00701869999466,-2.52,13.0,0.0,75,-2.519782403060843
221,11.054088399992906,-2.52,12.46,0.0,75,-2.5197617338589473
222,11.102117500005988,-2.52,12.24,0.0,76,-2.5197611749530537
223,11.162396500003524,-2.52,12.46,0.0,76,-2.5197881135938442
224,11.208709700003965,-2.52,13.11,0.0,76,-2.5198494526149817
225,11.254443300000275,-2.52,12.35,0.0,76,-2.5199506354011487
226,11.305267200004891,-2.52,13.22,0.0,76,-2.5200944825717997
227,11.3478230000037,-2.52,12.46,0.0,76,-2.520279906257414
228,11.392183699994348,-2.52,13.33,0.0,76,-2.5205006060896897
229,11.438174299997629,-2.52,12.46,0.0,76,-2.520743891166991
230,11.484725100002834,-2.52,12.56,0.0,76,-2.5209898103363413
231,11.531572199994116,-2.52,13.11,0.0,77,-2.521210803989723
232,11.579499500003294,-2.52,13.44,0.0,77,-2.5213721079882867
233,11.626139999993027,-2.52,12.78,0.0,77,-2.5214331373665755
234,11.67375020000327,-2.52,12.67,0.0,77,-2.5213500470123673
235,11.7298565999954,-2.52,13.44,0.0,77,-2.521079602023928
236,11.793951999992714,-2.52,12.78,0.0,77,-2.520584386914053
237,11.838016099995002,-2.52,13.54,0.0,77,-2.5198392379382653
238,11.880239000005531,-2.52,13.11,0.0,77,-2.5188385981764223
239,11.931694300001254,-2.52,12.78,0.0,77,-2.517604277364207
240,11.978766500003983,-2.52,12.89,0.0,78,-2.5161928608897117
241,12.02260870000464,-2.52,12.78,0.0,78,-2.5147017749116025
242,12.0814204000053,-2.52,13.54,0.0,78,-2.5132728045576034
243,12.127286300004926,-2.52,13.11,0.0,78,-2.5120917137019467
244,12.206666199999743,-2.52,13.0,0.0,78,-2.511382567202489
245,12.252976300005685,-2.52,13.87,0.0,78,-2.5113954515564116
246,12.300790399996911,-2.52,13.0,0.0,78,-2.5123865681445476
247,12.359846799998197,-2.52,13.11,0.0,78,-2.5145901683253418
248,12.4382723000017,-2.52,13.0,0.0,79,-2.518182532214687
249,12.487361199993757,-2.52,13.65,0.0,79,-2.5232391631825
250,12.550200500001663,-2.52,14.2,0.0,79,-2.529687549889068
251,12.59298050000507,-2.52,13.22,0.0,79,-2.537259173586755
252,12.64123359999212,-2.52,13.22,0.0,79,-2.5454458055006803
253,12.687827300003846,-2.52,14.31,0.0,79,-2.5534663975192586
254,12.735131699999329,-2.52,13.22,0.0,79,-2.5602518246296837
255,12.797336599993288,-2.52,13.33,0.0,79,-2.564455155547016
256,12.85869900000398,-2.52,14.2,0.0,80,-2.5644947467780406
257,12.906803000005311,-2.52,13.98,0.0,80,-2.5586360031523223
258,12.95282629999565,-2.52,13.44,0.0,80,-2.5451148685644363
259,12.9989712999959,-2.52,14.31,0.0,80,-2.5223017959399665
260,13.044250899998588,-2.52,13.44,0.0,80,-2.4888989715358623
261,13.091793300001882,-2.52,14.42,0.0,80,-2.444155935389186
262,13.156488299995544,-2.52,13.44,0.0,80,-2.3880796066875822
263,13.201564300004977,-2.52,13.54,0.0,80,-2.321604437418499
264,13.24770379999245,-2.52,13.76,0.0,81,-2.2466775266804766
265,13.307741199998418,-2.52,13.54,0.0,81,-2.166202764433477
266,13.354682000004686,-1.73,13.54,0.0,81,-2.0837907790830505
267,13.402168999993592,-1.73,13.65,0.0,81,-2.0033159686005226
268,13.450668100005714,-1.73,14.42,0.0,73,-1.9283890297239188
269,13.500185900004,-1.73,14.2,0.0,73,-1.861913982531385
270,13.541936499997972,-1.73,13.87,0.0,73,-1.8058381049336318
271,13.590676699997855,-1.73,13.65,0.0,73,-1.7610960568552652
272,13.639346500000102,-1.73,14.53,0.0,73,-1.7276949687549312
273,13.686832099992898,-1.73,14.42,0.0,73,-1.7048845638696835
274,13.730314999993425,-1.73,13.98,0.0,73,-1.6913671477193026
275,13.791810399998212,-1.73,13.65,0.0,74,-1.6855131901138574
276,13.840177000005497,-1.73,14.2,0.0,74,-1.6855585112162137
277,13.88532970000233,-1.73,13.87,0.0,74,-1.6897682172359159
278,13.945991100001264,-1.73,14.31,0.0,74,-1.696560165600223
279,13.993371399992611,-1.73,13.87,0.0,74,-1.7045867141728126
280,14.04051599999366,-1.73,13.87,0.0,74,-1.7127778243247551
281,14.087080600002082,-1.73,14.53,0.0,74,-1.7203513669418378
282,14.134123900003033,-1.73,13.98,0.0,74,-1.726797931941893
283,14.179635499996948,-1.73,13.87,0.0,74,-1.7318478214688569
284,14.226209899992682,-1.73,13.87,0.0,74,-1.7354274862616572
285,14.274104399999487,-1.73,14.2,0.0,74,-1.7376117057211777
286,14.320148999991943,-1.73,13.98,0.0,74,-1.7385765489240919
287,14.366829399994458,-1.73,13.98,0.0,74,-1.738556780968027
288,14.413656599994283,-1.73,13.87,0.0,75,-1.7378100467704507
289,14.460629499997594,-1.73,14.09,0.0,75,-1.7365889782355428
290,14.50751680000394,-1.73,13.87,0.0,75,-1.7351213947622384
291,14.554633699997794,-1.73,13.98,0.0,75,-1.7335980303276546
292,14.601134600001387,-1.73,14.85,0.0,75,-1.7321667237716345
293,14.650052199998754,-1.73,13.98,0.0,75,-1.7309317329705283
294,14.695460200004163,-1.73,14.09,0.0,75,-1.729956745698391
295,14.7433594000031,-1.73,14.74,0.0,75,-1.729270220659355
296,14.791168199997628,-1.73,14.2,0.0,75,-1.7288718602176398
297,14.837629899993772,-1.73,13.98,0.0,75,-1.7287392525599472
298,14.8861576999916,-1.73,14.74,0.0,75,-1.7288339907082653
299,14.932593999998062,-1.73,14.2,0.0,76,-1.7291068500855284
300,14.978614699997706,-1.73,14.09,0.0,76,-1.7295018625351695
301,15.026857299992116,-1.73,14.53,0.0,76,-1.7299593459831406
302,15.074369800000568,-1.73,14.09,0.0,76,-1.7304181235839047
303,15.1212627000059,-1.73,14.2,0.0,76,-1.730817286638677
304,15.199862099994789,-1.73,15.07,0.0,76,-1.731097917471259
305,15.24904239999887,-1.73,14.2,0.0,76,-1.7312051899499101
306,15.2924772999977,-1.73,14.2,0.0,76,-1.7310912066937625
307,15.34114910000062,-1.73,14.85,0.0,76,-1.7307188154858908
308,15.390012100004242,-1.73,14.2,0.0,76,-1.7300664777022656
309,15.433667499994044,-1.73,14.2,0.0,76,-1.7291340463665814
310,15.481527600000843,-1.73,14.53,0.0,76,-1.7279490623678957
311,15.531515499998932,-1.73,14.2,0.0,76,-1.7265729108480272
312,15.576307099996484,-1.73,14.2,0.0,77,-1.7251059177334729
313,15.635464799997862,-1.73,15.07,0.0,77,-1.7236902366704012
314,15.682035599995288,-1.73,14.63,0.0,77,-1.7225092125681984
315,15.730159900005674,-1.73,14.74,0.0,77,-1.7217818472046362
316,15.776441800000612,-1.73,14.31,0.0,77,-1.7217510744723106
317,15.825026199992864,-1.73,15.29,0.0,77,-1.7226648157723778
318,15.887295299995458,-1.73,14.63,0.0,77,-1.724749261171985
319,15.930074999996576,-1.73,14.42,0.0,77,-1.7281745280346021
320,15.981266200004027,-1.73,14.31,0.0,77,-1.7330137851895995
321,16.02441009999893,-1.73,14.42,0.0,77,-1.739198069774572
322,16.072021200001473,-1.73,15.29,0.0,77,-1.7464703042736545
323,16.123689799991553,-1.73,14.42,0.0,77,-1.754343342016381
324,16.16585099999793,-1.73,14.42,0.0,77,-1.7620680865392
325,16.213497899996582,-1.73,15.18,0.0,78,-1.768618656971383
326,16.2585218000022,-1.73,14.53,0.0,78,-1.7727019833526898
327,16.33567960000073,-1.73,14.42,0.0,78,-1.7727988608613874
328,16.383576199994422,-1.73,15.51,0.0,78,-1.7672421091297672
329,16.429753299991717,-1.73,14.63,0.0,78,-1.7543348257777285
330,16.478402399996412,-1.73,15.29,0.0,78,-1.7325075911460182
