,time,angle,pressure,set_point,motor_speed,Filtered_angle
0,0.0471756999904755,-0.49,-2.26,0.0,57,-0.48999999956659473
1,0.1079804999899352,-0.49,-2.91,0.0,57,-0.48999999954601675
2,0.1566118999908212,-0.49,-2.48,0.0,57,-0.4899999995340722
3,0.2039318999886745,-0.49,-2.15,0.0,57,-0.4899999995325453
4,0.24978139999439,-0.49,-2.37,0.0,57,-0.48999999954324497
5,0.2967772999982117,-0.49,-2.59,0.0,57,-0.4899999995679603
6,0.3457567000004928,-0.49,-2.48,0.0,57,-0.48999999960840973
7,0.4077812999894377,-0.49,-2.26,0.0,57,-0.48999999966618285
8,0.4538266999879852,-0.49,-2.91,0.0,57,-0.48999999974267633
9,0.5070406999875559,-0.49,-2.91,0.0,57,-0.4899999998390237
10,0.5538970999914454,-0.49,-2.59,0.0,57,-0.4899999999560208
11,0.6155995000008261,-0.49,-2.37,0.0,57,-0.4900000000940466
12,0.6605139999883249,-0.49,-2.91,0.0,57,-0.49000000025298257
13,0.7071913999971002,-0.49,-2.59,0.0,57,-0.4900000004321317
14,0.7530092999950284,-0.49,-2.7,0.0,57,-0.4900000006301389
15,0.8006269999896176,-0.49,-3.02,0.0,57,-0.4900000008449153
16,0.8482497999939369,-0.49,-2.91,0.0,57,-0.4900000010735695
17,0.8943253999896115,-0.49,-2.59,0.0,57,-0.4900000013123487
18,0.9413841999921716,-0.49,-2.7,0.0,57,-0.4900000015565928
19,0.9868136999866692,-0.49,-2.91,0.0,57,-0.4900000018007045
20,1.0324254000006476,-0.49,-3.02,0.0,57,-0.4900000020381405
21,1.0801291999960083,-0.49,-2.7,0.0,57,-0.490000002261425
22,1.1269995999900857,-0.49,-2.15,0.0,57,-0.4900000024621917
23,1.175408899987815,-0.49,-2.91,0.0,57,-0.49000000263125626
24,1.2224767999869073,-0.49,-2.91,0.0,57,-0.4900000027587224
25,1.2830210999964038,-0.49,-2.7,0.0,57,-0.4900000028341253
26,1.3304725999914808,-0.49,-2.26,0.0,57,-0.4900000028466151
27,1.37818949999928,-0.49,-2.37,0.0,57,-0.49000000278518113
28,1.423379899992142,-0.49,-2.48,0.0,57,-0.4900000026389188
29,1.4711761999933517,-0.49,-2.37,0.0,57,-0.49000000239733915
30,1.52042009998695,-0.49,-2.15,0.0,57,-0.4900000020507192
31,1.5679995999962557,-0.49,-2.37,0.0,57,-0.4900000015904921
32,1.6121595999866258,-0.49,-2.37,0.0,58,-0.4900000010096716
33,1.6601474999915808,-0.49,-2.59,0.0,58,-0.4900000003033073
34,1.7085513999918476,-0.49,-2.26,0.0,58,-0.4899999994689626
35,1.7556808999943314,-0.49,-2.26,0.0,58,-0.4899999985072058
36,1.800482099992223,-0.49,-2.37,0.0,58,-0.48999999742210526
37,1.847729999994044,-0.49,-3.02,0.0,58,-0.4899999962217146
38,1.9089624999905936,-0.49,-2.81,0.0,58,-0.4899999949185338
39,1.9551815999875544,-0.49,-2.7,0.0,58,-0.48999999352993
40,2.0022943999938434,-0.49,-2.37,0.0,58,-0.4899999920784997
41,2.048698799990234,-0.49,-2.37,0.0,58,-0.4899999905923524
42,2.09564159999718,-0.49,-2.37,0.0,58,-0.48999998910529535
43,2.157586799992714,-0.49,-2.59,0.0,58,-0.4899999876568973
44,2.2054407999967225,-0.49,-2.7,0.0,58,-0.48999998629240965
45,2.252444400000968,-0.49,-2.81,0.0,58,-0.4899999850625221
46,2.300429899987648,-0.49,-2.37,0.0,58,-0.48999998402293116
47,2.361939899987192,-0.49,-2.59,0.0,58,-0.48999998323370214
48,2.407228699987172,-0.49,-2.59,0.0,58,-0.4899999827584061
49,2.4537956999993185,-0.49,-2.7,0.0,58,-0.48999998266301686
50,2.501507900000433,-0.49,-2.91,0.0,58,-0.489999983014556
51,2.548892199993133,-0.49,-3.02,0.0,58,-0.48999998387948046
52,2.5960787999938475,-0.49,-2.48,0.0,58,-0.4899999853218116
53,2.642289499999606,-0.49,-2.59,0.0,58,-0.48999998740101186
54,2.689185600000201,-0.49,-2.7,0.0,58,-0.4899999901696222
55,2.738646499987226,-0.49,-2.7,0.0,58,-0.4899999936706842
56,2.7969286999868928,-0.49,-2.37,0.0,58,-0.4899999979349782
57,2.8580125000007683,-0.49,-3.02,0.0,58,-0.49000000297812035
58,2.9058923999982653,-0.49,-2.59,0.0,58,-0.4900000087975716
59,2.956303399987519,-0.49,-2.26,0.0,58,-0.49000001536962473
60,3.002184799988754,-0.49,-2.37,0.0,58,-0.49000002264644543
61,3.049370299995644,-0.49,-3.02,0.0,58,-0.4900000305532553
62,3.111552999995183,-0.49,-2.91,0.0,58,-0.49000003898575667
63,3.173736099997768,-0.49,-2.37,0.0,58,-0.49000004780790857
64,3.233249799988698,-0.49,-2.81,0.0,58,-0.4900000568501744
65,3.282506999996258,-0.49,-3.02,0.0,58,-0.4900000659083657
66,3.330381399995531,-0.49,-2.91,0.0,58,-0.4900000747432161
67,3.373132799999439,-0.49,-2.81,0.0,58,-0.4900000830808196
68,3.4468651999923168,-0.49,-2.37,0.0,58,-0.49000009061406896
69,3.493198799988022,-0.49,-2.81,0.0,58,-0.4900000970052247
70,3.5364114999974845,-0.49,-3.02,0.0,58,-0.49000010188973825
71,3.5822555999911856,-0.49,-3.02,0.0,58,-0.4900001048814406
72,3.629357699988759,-0.49,-2.81,0.0,58,-0.4900001055791883
73,3.6762615999905393,-0.49,-2.59,0.0,58,-0.49000010357503837
74,3.7385663999884855,-0.49,-2.7,0.0,59,-0.4900000984639911
75,3.783410099989851,-0.49,-3.02,0.0,59,-0.4900000898553088
76,3.831005100000766,-0.49,-3.02,0.0,59,-0.49000007738537305
77,3.877669800000149,-0.49,-3.02,0.0,59,-0.49000006073200103
78,3.9261684999946738,-0.49,-2.81,0.0,59,-0.49000003963008326
79,3.985699899989413,-0.49,-2.7,0.0,59,-0.4900000138883514
80,4.031813999987207,-0.49,-2.26,0.0,59,-0.48999998340701906
81,4.078203199998825,-0.49,-2.26,0.0,59,-0.48999994819597253
82,4.125307299997076,-0.49,-2.26,0.0,59,-0.4899999083931193
83,4.1711189999914495,-0.49,-3.02,0.0,59,-0.48999986428243
84,4.217173499986529,-0.49,-3.02,0.0,59,-0.4899998163111409
85,4.263419700000668,-0.49,-2.91,0.0,59,-0.4899997651055151
86,4.310996499989415,-0.49,-2.81,0.0,59,-0.489999711484495
87,4.38900479998847,-0.49,-2.59,0.0,59,-0.48999965647052585
88,4.451087099994766,-0.49,-2.7,0.0,59,-0.48999960129677916
89,4.498163599986583,-0.49,-2.81,0.0,59,-0.4899995474099735
90,4.546048399992287,-0.49,-3.02,0.0,59,-0.4899994964679692
91,4.594608299987158,-0.49,-2.59,0.0,59,-0.48999945033131515
92,4.643351399994572,-0.49,-2.48,0.0,59,-0.4899994110479457
93,4.6855164999869885,-0.49,-2.59,0.0,59,-0.48999938083027555
94,4.749606799989124,-0.49,-2.48,0.0,59,-0.489999362024014
95,4.797740599999088,-0.49,-2.81,0.0,59,-0.4899993570681252
96,4.842474899996887,-0.49,-2.91,0.0,59,-0.4899993684455027
97,4.902985900000203,-0.49,-2.48,0.0,59,-0.4899993986240994
98,4.950266499989084,-0.49,-3.02,0.0,59,-0.48999944998846573
99,4.996358599993982,-0.49,-3.02,0.0,59,-0.48999952476189673
100,5.043579699995462,-0.49,-2.59,0.0,59,-0.489999624919675
101,5.090851399989333,-0.49,-2.59,0.0,59,-0.4899997520942148
102,5.1358493000007,-0.49,-2.7,0.0,59,-0.4899999074732669
103,5.183282599988161,-0.49,-2.81,0.0,59,-0.4900000916927261
104,5.230907099990873,-0.49,-2.37,0.0,59,-0.49000030472598904
105,5.2784583999891765,-0.49,-2.48,0.0,59,-0.4900005457722308
106,5.326014599995688,-0.49,-2.48,0.0,59,-0.4900008131464036
107,5.372972699988168,-0.49,-2.59,0.0,59,-0.4900011041741866
108,5.419907999996212,-0.49,-2.7,0.0,59,-0.490001415095533
109,5.4671104999870295,-0.49,-2.48,0.0,59,-0.4900017409808511
110,5.51430569999502,-0.49,-2.26,0.0,59,-0.49000207566420134
111,5.561599299995578,-0.49,-2.91,0.0,59,-0.4900024116981824
112,5.609077399989474,-0.49,-3.02,0.0,59,-0.49000274033539154
113,5.656183299986878,-0.49,-3.02,0.0,59,-0.4900030515414637
114,5.703494599991245,-0.49,-3.02,0.0,59,-0.49000333404470126
115,5.75006159998884,-0.49,-2.59,0.0,59,-0.4900035754271777
116,5.797640399992815,-0.49,-2.7,0.0,59,-0.4900037622619193
117,5.858554799997364,-0.49,-2.59,0.0,60,-0.4900038803003213
118,5.906623099988792,-0.49,-2.81,0.0,60,-0.490003914713316
119,5.954355699999724,-0.49,-3.02,0.0,60,-0.4900038503889724
120,6.001871399988886,-0.49,-3.02,0.0,60,-0.4900036722881545
121,6.061755999995512,-0.49,-2.59,0.0,60,-0.490003365858591
122,6.109036599998944,-0.49,-3.02,0.0,60,-0.4900029175062062
123,6.172245299996575,-0.49,-2.59,0.0,60,-0.4900023151208404
124,6.218309199990472,-0.49,-2.59,0.0,60,-0.4900015486515446
125,6.266269599989755,-0.49,-2.26,0.0,60,-0.49000061072449513
126,6.326168199986569,-0.49,-2.91,0.0,60,-0.4899994972942539
127,6.389630799996667,-0.49,-2.48,0.0,60,-0.4899982083166347
128,6.436448099993868,-0.49,-2.59,0.0,60,-0.4899967484288677
129,6.48518599999079,-0.49,-2.59,0.0,60,-0.48999512762012915
130,6.544742199999746,-0.49,-2.59,0.0,60,-0.4899933618728883
131,6.591209799997159,-0.49,-2.7,0.0,60,-0.4899914737529841
132,6.637548099999549,-0.49,-2.91,0.0,60,-0.48998949292396704
133,6.685444699993241,-0.49,-3.13,0.0,60,-0.48998745655910897
134,6.732580899988534,-0.49,-2.59,0.0,60,-0.48998540962270615
135,6.793491299991729,-0.49,-2.59,0.0,60,-0.48998340499097487
136,6.857548999993014,-0.49,-2.81,0.0,60,-0.4899815033820823
137,6.904946399998153,-0.49,-2.59,0.0,60,-0.48997977306478563
138,6.955094999997527,-0.49,-2.7,0.0,60,-0.48997828931588333
139,7.01866409998911,-0.49,-2.81,0.0,60,-0.4899771335983352
140,7.060733899998013,-0.49,-2.37,0.0,60,-0.4899763924345924
141,7.1079483999928925,-0.49,-3.02,0.0,60,-0.48997615595349747
142,7.15572159999283,-0.49,-3.02,0.0,60,-0.4899765160941603
143,7.20042399999511,-0.49,-2.91,0.0,60,-0.4899775644565622
144,7.246482599992305,-0.49,-2.7,0.0,60,-0.48997938979633254
145,7.308836099997279,-0.49,-2.7,0.0,60,-0.4899820751702136
146,7.355354399987846,-0.49,-2.37,0.0,60,-0.4899856947491619
147,7.403114399989136,-0.49,-3.02,0.0,60,-0.48999031032778523
148,7.4514561999967555,-0.49,-3.13,0.0,60,-0.48999596757179004
149,7.49962429999141,-0.49,-2.91,0.0,60,-0.4900026920591845
150,7.562642499993672,-0.49,-3.02,0.0,60,-0.49001048518594
151,7.608304199995473,-0.49,-2.59,0.0,60,-0.4900193200224299
152,7.656474299990805,-0.49,-2.37,0.0,60,-0.4900291372229196
153,7.702633799999603,-0.49,-2.81,0.0,60,-0.49003984110630866
154,7.749846199993044,-0.49,-2.91,0.0,60,-0.49005129604180325
155,7.796561700000893,-0.49,-3.02,0.0,60,-0.4900633232877199
156,7.843327999988105,-0.49,-3.02,0.0,60,-0.4900756984446542
157,7.889213899994502,-0.49,-2.59,0.0,60,-0.4900881496951813
158,7.9507996999891475,-0.49,-2.59,0.0,60,-0.49010035701043825
159,7.998768499994185,-0.49,-2.7,0.0,61,-0.49011195250869327
160,8.045216799990158,-0.49,-2.7,0.0,61,-0.49012252215161617
161,8.107907799989334,-0.49,-2.91,0.0,61,-0.49013160895971347
162,8.154928899995866,-0.49,-3.02,0.0,61,-0.49013871791856395
163,8.201614199992036,-0.49,-3.02,0.0,61,-0.4901433227314042
164,8.247758999990765,-0.49,-3.02,0.0,61,-0.49014487455063344
165,8.295702699993853,-0.49,-3.02,0.0,61,-0.49014281279037536
166,8.342651999992086,-0.49,-2.7,0.0,61,-0.4901365780838997
167,8.389052599988645,-0.49,-2.59,0.0,61,-0.49012562740314763
168,8.435153799990076,-0.49,-2.7,0.0,61,-0.4901094513026663
169,8.512951699987752,-0.49,-2.7,0.0,61,-0.4900875931869891
170,8.57556269998895,-0.49,-2.7,0.0,61,-0.49005967042916093
171,8.622693199999048,-0.49,-2.59,0.0,61,-0.49002539708924925
172,8.67042959999526,-0.49,-2.26,0.0,61,-0.48998460789611137
173,8.715938299996196,-0.49,-2.91,0.0,61,-0.48993728306456413
174,8.763987899990752,-0.49,-3.02,0.0,61,-0.48988357342489636
175,8.812081899988698,-0.49,-3.02,0.0,61,-0.4898238252442309
176,8.858753099993919,-0.49,-2.91,0.0,61,-0.4897586040217888
177,8.903547099995194,-0.49,-2.59,0.0,61,-0.48968871644523243
178,8.952072799991583,-0.49,-2.7,0.0,61,-0.48961522960592513
179,8.998514799997793,-0.49,-2.7,0.0,61,-0.4895394864904478
180,9.04463959998975,-0.49,-2.7,0.0,61,-0.4894631166977074
181,9.092121800000314,-0.49,-2.91,0.0,61,-0.48938804127936447
182,9.138466499993228,-0.49,-2.7,0.0,61,-0.48931647057024746
183,9.186100899998564,-0.49,-2.59,0.0,61,-0.48925089386919235
184,9.234350499988068,-0.49,-2.81,0.0,61,-0.48919405985370884
185,9.281441599989192,-0.49,-2.7,0.0,61,-0.48914894666833303
186,9.327887599996757,-0.49,-2.81,0.0,61,-0.48911872072061163
187,9.375337499994204,-0.49,-2.91,0.0,61,-0.4891066833542142
188,9.42468579999695,-0.49,-2.48,0.0,61,-0.48911620474903544
189,9.471097299989196,-0.49,-2.48,0.0,61,-0.48915064462606633
190,9.517021699997713,-0.49,-2.59,0.0,61,-0.48921325961218015
191,9.564937599992843,-0.49,-2.59,0.0,61,-0.48930709744769557
192,9.624101900000824,-0.49,-2.91,0.0,61,-0.4894348785973393
193,9.684037699989858,-0.49,-2.7,0.0,61,-0.48959886625131216
194,9.731124300000374,-0.49,-2.7,0.0,61,-0.48980072617424436
195,9.778545599998324,-0.49,-2.7,0.0,61,-0.4900413783708106
196,9.82501709999633,-0.49,-2.81,0.0,61,-0.4903208430805784
197,9.87218129998655,-0.49,-2.7,0.0,61,-0.49063808418212324
198,9.9381885999901,-0.49,-2.37,0.0,61,-0.490990853666141
199,9.982643099996494,-0.49,-3.02,0.0,61,-0.49137554141552015
200,10.044175999995788,-0.49,-2.37,0.0,61,-0.49178703509105176
201,10.09195419999014,-0.49,-3.13,0.0,61,-0.4922185954462753
202,10.139781699996092,-0.49,-2.59,0.0,61,-0.49266175286329666
203,10.18649199999345,-0.49,-2.59,0.0,61,-0.4931062312905952
204,10.233736599999247,-0.49,-2.59,0.0,62,-0.49353990604936
205,10.295362099990598,-0.49,-2.7,0.0,62,-0.4939488021307597
206,10.34295399999246,-0.49,-2.7,0.0,62,-0.4943171396056731
207,10.406011099999889,-0.49,-2.37,0.0,62,-0.49462743258312664
208,10.452413799997885,-0.49,-2.81,0.0,62,-0.4948606477564054
209,10.500533099999302,-0.49,-3.02,0.0,62,-0.4949964279396832
210,10.550470899994252,-0.49,-2.48,0.0,62,-0.495013385097783
211,10.594275199997355,-0.49,-2.59,0.0,62,-0.4948894661845458
212,10.642293999990216,-0.49,-2.59,0.0,62,-0.4946023936118969
213,10.689896999989289,-0.49,-3.02,0.0,62,-0.49413018035721273
214,10.737515899993014,-0.49,-3.02,0.0,62,-0.4934517175717386
215,10.779781199991705,-0.49,-2.91,0.0,62,-0.4925474300750106
216,10.841322299995229,-0.49,-2.81,0.0,62,-0.4913999923147451
217,10.888773099999526,-0.49,-2.59,0.0,62,-0.48999509425258786
218,10.935849999994389,-0.49,-2.37,0.0,62,-0.4883222432274728
219,10.984237799988476,-0.49,-2.26,0.0,62,-0.48637558418490273
220,11.029539199997089,-0.49,-2.48,0.0,62,-0.48415471678848304
221,11.076741799988667,-0.49,-3.02,0.0,62,-0.48166548390778147
222,11.124170899987805,-0.49,-3.02,0.0,62,-0.478920701874527
223,11.169866599986564,-0.49,-3.02,0.0,62,-0.47594079879992385
224,11.21554499999911,-0.49,-3.13,0.0,62,-0.47275432324371
225,11.262611599988304,-0.49,-2.59,0.0,62,-0.4693982817255394
226,11.309805099997902,-0.49,-2.7,0.0,62,-0.4659182600855745
227,11.356734999993932,-0.49,-2.7,0.0,62,-0.4623682806553853
228,11.404808299994327,-0.49,-2.59,0.0,62,-0.4588103447185237
229,11.465749399998458,-0.49,-2.59,0.0,62,-0.455313607949925
230,11.512174799994682,-0.49,-2.81,0.0,62,-0.451953135549306
231,11.560149999990244,-0.49,-2.37,0.0,62,-0.4488081837431282
232,11.607765399996424,-0.49,-2.37,0.0,62,-0.4459599553264935
233,11.66723509998701,-0.49,-2.37,0.0,62,-0.44348877903501743
234,11.715390799989107,-0.49,-2.59,0.0,62,-0.4414706658350159
235,11.77537659999507,-0.49,-2.48,0.0,62,-0.4399731997213006
236,11.821787199995017,-0.49,-3.02,0.0,62,-0.43905072629510883
237,11.882560999991256,0.49,-2.7,0.0,62,-0.438739042066363
238,11.94565789999615,-0.49,-2.91,0.0,62,-0.439050726707894
239,11.99217859999044,-0.49,-2.7,0.0,62,-0.43997320054189065
240,12.03953399999591,-0.49,-2.59,0.0,62,-0.44147066705332233
241,12.086372999998275,-0.49,-2.48,0.0,62,-0.4434887806355947
242,12.179416899991338,-0.49,-2.7,0.0,62,-0.4459599572881805
243,12.241483199992215,-0.49,-2.91,0.0,62,-0.44880818603859934
244,12.304636799992297,-0.49,-2.37,0.0,62,-0.45195313814455584
245,12.35154329999932,-0.49,-2.48,0.0,63,-0.45531361080371513
246,12.399212399992392,-0.49,-3.02,0.0,63,-0.45881034778182783
247,12.446386799987522,-0.49,-3.02,0.0,63,-0.46236828387087026
248,12.49479299999075,-0.49,-3.02,0.0,63,-0.4659182633871607
249,12.54228979999607,-0.49,-3.02,0.0,63,-0.4693982850380867
250,12.58820939999714,-0.49,-2.48,0.0,63,-0.47275432648287674
251,12.650513299988232,-0.49,-2.48,0.0,63,-0.47594080187224835
252,12.697082399987266,-0.49,-2.48,0.0,63,-0.478920704677781
253,12.745632399994063,-0.49,-2.48,0.0,63,-0.4816654863316441
254,12.79358610000054,-0.49,-2.59,0.0,63,-0.4841547187155811
255,12.852148999998462,-0.49,-2.59,0.0,63,-0.48637558549225784
256,12.912357999986853,-0.49,-2.59,0.0,63,-0.48832224378839123
257,12.975276299999678,-0.49,-3.13,0.0,63,-0.48999509393902096
258,13.02197879999585,-0.49,-3.02,0.0,63,-0.49139999100013926
259,13.07170159999805,-0.49,-3.02,0.0,63,-0.49254742763765275
260,13.130106699987664,-0.49,-2.7,0.0,63,-0.4934517138985928
261,13.177391399993212,-0.49,-3.02,0.0,63,-0.4941301753482244
262,13.224723899998937,-0.49,-2.7,0.0,63,-0.4946023871847277
263,13.270887299993774,-0.49,-2.7,0.0,63,-0.49488945827968184
264,13.318787199998042,-0.49,-2.7,0.0,63,-0.4950133756839387
265,13.36488819999795,-0.49,-2.7,0.0,63,-0.4949964170194042
266,13.426828499999829,-0.49,-2.91,0.0,63,-0.49486063537174746
267,13.476256699999794,-0.49,-2.7,0.0,63,-0.4946274188212687
268,13.537015999987489,-0.49,-2.81,0.0,63,-0.49431712460429994
269,13.598695199994836,-0.49,-2.81,0.0,63,-0.4939487860830249
270,13.646466899997904,-0.49,-2.7,0.0,63,-0.4935398892082227
271,13.692431999996188,-0.49,-2.7,0.0,63,-0.493106213972304
272,13.741595699990285,-0.49,-2.7,0.0,63,-0.49266173544977987
273,13.785610499995528,-0.49,-2.59,0.0,63,-0.4922185783861861
274,13.831266999986838,-0.49,-2.59,0.0,63,-0.49178701889920695
275,13.878549399989424,-0.49,-2.48,0.0,63,-0.4913755266704744
276,13.925651099998504,-0.49,-2.37,0.0,63,-0.49099084100564283
277,13.988736999992398,-0.49,-2.81,0.0,63,-0.4906380742962123
278,14.048352799989516,-0.49,-2.37,0.0,63,-0.4903208367021081
279,14.095893799996702,-0.49,-2.48,0.0,63,-0.49004137626321065
280,14.142891299998157,-0.49,-2.48,0.0,63,-0.4898007291163815
281,14.190023399991333,-0.49,-2.48,0.0,63,-0.4895988750193607
282,14.236856299990905,-0.49,-2.37,0.0,63,-0.48943489394363887
283,14.29753849998815,-0.49,-2.91,0.0,63,-0.48930712007664795
284,14.343914199998837,-0.49,-2.37,0.0,63,-0.4892132901533287
285,14.392361599995638,-0.49,-2.48,0.0,63,-0.48915068360459824
286,14.438185099992552,-0.49,-3.02,0.0,63,-0.48911625255405883
287,14.485335399993346,-0.49,-3.02,0.0,64,-0.4891067402052803
288,14.531595799999195,-0.49,-2.91,0.0,64,-0.48911878663307834
289,14.580672999989474,-0.49,-2.91,0.0,64,-0.48914902141830113
290,14.640657399999329,-0.49,-2.37,0.0,64,-0.4891941429433939
291,14.686649999988733,-0.49,-2.91,0.0,64,-0.48925098449373244
292,14.748936099989804,-0.49,-2.37,0.0,64,-0.489316567587078
293,14.796441999991655,-0.49,-2.7,0.0,64,-0.4893881431814145
294,14.84441859999788,-0.49,-2.81,0.0,64,-0.48946322159178324
295,14.889691499993203,-0.49,-2.7,0.0,64,-0.48953959208226056
296,14.93725849999464,-0.49,-2.7,0.0,64,-0.4896153331932915
297,14.998353999995745,-0.49,-2.91,0.0,64,-0.48968881492101796
298,15.047045899991645,-0.49,-2.81,0.0,64,-0.4897586938881677
299,15.108080299993162,-0.49,-3.02,0.0,64,-0.48982390263980324
300,15.156612699996913,-0.49,-2.91,0.0,64,-0.48988363416612046
301,15.204399800000829,-0.49,-3.02,0.0,64,-0.4899373227028267
302,15.252309199990124,-0.49,-2.7,0.0,64,-0.4899846217915646
303,15.298247899991113,-0.49,-2.7,0.0,64,-0.4900253805022884
304,15.346557199998642,-0.49,-2.59,0.0,64,-0.4900596186300932
305,15.394317300000694,-0.49,-2.7,0.0,64,-0.49008750158405007
306,15.443071999994572,-0.49,-3.02,0.0,64,-0.4901093155880794
307,15.48796179999772,-0.49,-3.02,0.0,64,-0.4901254437163858
308,15.535539399992558,-0.49,-3.02,0.0,64,-0.49013634319070837
309,15.59693719999632,-0.49,-2.48,0.0,64,-0.49014252427544885
310,15.64429559999553,-0.49,-3.02,0.0,64,-0.49014453102111466
311,15.706008099994506,-0.49,-3.02,0.0,64,-0.4901429240276084
312,15.75229629999376,-0.49,-3.02,0.0,64,-0.4901382653275235
313,15.799336500000209,-0.49,-3.02,0.0,64,-0.49013110542631777
314,15.846989300000132,-0.49,-2.91,0.0,64,-0.49012197248129824
315,15.892037599987816,-0.49,-2.48,0.0,64,-0.4901113635548143
316,15.938113299998804,-0.49,-2.48,0.0,64,-0.4900997378387675
317,15.985811899998223,-0.49,-2.59,0.0,64,-0.4900875117171895
318,16.033170099995914,-0.49,-2.59,0.0,64,-0.4900750555107686
319,16.07957279999391,-0.49,-2.7,0.0,64,-0.49006269173125333
320,16.12617429999227,-0.49,-2.7,0.0,64,-0.4900506946640136
321,16.16969879998942,-0.49,-2.81,0.0,64,-0.49003929109299643
322,16.21743149998656,-0.49,-2.7,0.0,64,-0.4900286619831734
323,16.280559499995434,-0.49,-2.7,0.0,64,-0.4900189449406142
324,16.328442099998938,-0.49,-2.7,0.0,64,-0.49001023727882737
