,time,angle,pressure,set_point,motor_speed,Filtered_angle
0,0.0451834000414237,0.8,1.66,0.0,12,0.8000000000000038
1,0.0920861000195145,0.8,1.77,0.0,12,0.8000000000000038
2,0.1380374000873416,0.8,1.66,0.0,12,0.8000000000000038
3,0.1863562000216916,0.8,1.66,0.0,12,0.8000000000000038
4,0.2341555000748485,0.8,1.66,0.0,12,0.8000000000000038
5,0.281618700013496,0.8,1.45,0.0,12,0.8000000000000038
6,0.3284606999950483,0.8,1.66,0.0,12,0.8000000000000038
7,0.3744910000823438,0.8,1.66,0.0,12,0.8000000000000038
8,0.4211669000796973,0.8,1.66,0.0,12,0.8000000000000038
9,0.4674322000937536,0.8,1.66,0.0,12,0.8000000000000038
10,0.5151488000992686,0.8,1.55,0.0,12,0.8000000000000038
11,0.5623699000570923,0.8,1.55,0.0,12,0.8000000000000038
12,0.6232224000850692,0.8,1.66,0.0,12,0.8000000000000038
13,0.6706088000210002,0.8,1.66,0.0,12,0.8000000000000038
14,0.7160712000913918,0.8,1.55,0.0,12,0.8000000000000038
15,0.76279130007606,0.8,1.77,0.0,12,0.8000000000000038
16,0.8088105000788346,0.8,1.66,0.0,12,0.8000000000000038
17,0.8547277000034228,0.8,1.66,0.0,12,0.8000000000000038
18,0.9016349000157788,0.8,1.66,0.0,12,0.8000000000000038
19,0.9523999000666664,0.8,1.55,0.0,12,0.8000000000000038
20,1.0114688000176102,0.8,1.66,0.0,12,0.8000000000000038
21,1.0572049000766128,0.8,1.66,0.0,12,0.8000000000000038
22,1.104778700042516,0.8,1.66,0.0,12,0.8000000000000038
23,1.150089000002481,0.8,1.55,0.0,12,0.8000000000000038
24,1.1966334000462666,0.8,1.66,0.0,12,0.8000000000000038
25,1.2446017999900505,0.8,1.77,0.0,12,0.8000000000000038
26,1.2911164000397548,0.8,1.66,0.0,11,0.8000000000000038
27,1.3522628000937402,0.8,1.77,0.0,11,0.8000000000000038
28,1.399400299997069,0.8,1.66,0.0,11,0.8000000000000038
29,1.4474227000027895,0.8,1.55,0.0,11,0.8000000000000038
30,1.493570400052704,0.8,1.77,0.0,11,0.8000000000000038
31,1.5403107000747696,0.8,1.66,0.0,11,0.8000000000000038
32,1.586525100050494,0.8,1.55,0.0,11,0.8000000000000038
33,1.6330420000012964,0.8,1.55,0.0,11,0.8000000000000038
34,1.6793014000868425,0.8,1.55,0.0,11,0.8000000000000038
35,1.7265702000586316,0.8,1.45,0.0,11,0.8000000000000038
36,1.7896134000038728,0.8,1.45,0.0,11,0.8000000000000038
37,1.8348730000434443,0.8,1.45,0.0,11,0.8000000000000038
38,1.881347700022161,0.8,1.45,0.0,11,0.8000000000000038
39,1.9287368000950664,0.8,1.45,0.0,11,0.8000000000000038
40,1.9748578000580888,0.8,1.45,0.0,11,0.8000000000000038
41,2.0214406000450253,0.8,1.34,0.0,11,0.8000000000000038
42,2.069009500090033,0.8,1.23,0.0,11,0.8000000000000038
43,2.115777400089428,0.8,1.45,0.0,11,0.8000000000000038
44,2.1631434999872,0.8,1.45,0.0,11,0.8000000000000038
45,2.211148500093259,0.8,1.45,0.0,11,0.8000000000000038
46,2.2572972000343725,0.8,1.23,0.0,11,0.8000000000000038
47,2.3043322000885382,0.8,1.66,0.0,11,0.8000000000000038
48,2.350973700056784,0.8,1.45,0.0,11,0.8000000000000038
49,2.39824850007426,0.8,1.55,0.0,11,0.8000000000000038
50,2.447067500092089,0.8,1.45,0.0,11,0.8000000000000038
51,2.490151899983175,0.8,1.34,0.0,11,0.8000000000000038
52,2.5360270000528544,0.8,1.45,0.0,11,0.8000000000000038
53,2.583375000045635,0.8,1.45,0.0,11,0.8000000000000038
54,2.645571800065227,0.8,1.55,0.0,10,0.8000000000000038
55,2.691968100029044,0.8,1.45,0.0,10,0.8000000000000038
56,2.7534940000623465,0.8,1.34,0.0,10,0.8000000000000038
57,2.8023919000988826,0.8,1.55,0.0,10,0.8000000000000038
58,2.850136100081727,0.8,1.45,0.0,10,0.8000000000000038
59,2.8942614000989124,0.8,1.45,0.0,10,0.8000000000000038
60,2.940733800060116,0.8,1.34,0.0,10,0.8000000000000038
61,2.986128800082952,0.8,1.34,0.0,10,0.8000000000000038
62,3.033259200048633,0.8,1.34,0.0,10,0.8000000000000038
63,3.0807427000254397,0.8,1.34,0.0,10,0.8000000000000038
64,3.128098100074567,0.8,1.34,0.0,10,0.8000000000000038
65,3.1754673999967054,0.8,1.34,0.0,10,0.8000000000000038
66,3.2224558000452816,0.8,1.23,0.0,10,0.8000000000000038
67,3.268861000076868,0.8,1.34,0.0,10,0.8000000000000038
68,3.31944430002477,0.8,1.34,0.0,10,0.8000000000000038
69,3.362554099992849,0.8,1.34,0.0,10,0.8000000000000038
70,3.409292099997401,0.8,1.34,0.0,10,0.8000000000000038
71,3.456540600047447,0.8,1.34,0.0,10,0.8000000000000038
72,3.503880400094204,0.8,1.23,0.0,10,0.8000000000000038
73,3.5508783999830484,0.8,1.34,0.0,10,0.8000000000000038
74,3.6118570000398895,0.8,1.34,0.0,10,0.8000000000000038
75,3.65970900002867,0.8,1.34,0.0,10,0.8000000000000038
76,3.706459100008942,0.8,1.34,0.0,10,0.8000000000000038
77,3.753511800081469,0.8,1.23,0.0,10,0.8000000000000038
78,3.800358100095764,0.8,1.12,0.0,10,0.8000000000000038
79,3.848572500050068,0.8,1.34,0.0,9,0.8000000000000038
80,3.8936911000637338,0.8,1.34,0.0,9,0.8000000000000038
81,3.94134630006738,0.8,1.34,0.0,9,0.8000000000000038
82,3.9889380000531673,0.8,1.34,0.0,9,0.8000000000000038
83,4.036540900007822,0.8,1.23,0.0,9,0.8000000000000038
84,4.084399300045334,0.8,1.23,0.0,9,0.8000000000000038
85,4.131393300020136,0.8,1.12,0.0,9,0.8000000000000038
86,4.178564700065181,0.8,1.12,0.0,9,0.8000000000000038
87,4.225910900044255,0.8,1.23,0.0,9,0.8000000000000038
88,4.271859800093807,0.8,1.23,0.0,9,0.8000000000000038
89,4.3192203000653535,0.8,1.12,0.0,9,0.8000000000000038
90,4.367319300072268,0.8,1.12,0.0,9,0.8000000000000038
91,4.42904489999637,0.8,1.12,0.0,9,0.8000000000000038
92,4.477050099987537,0.8,1.12,0.0,9,0.8000000000000038
93,4.523145199986175,0.8,1.12,0.0,9,0.8000000000000038
94,4.572299499996007,0.8,1.12,0.0,9,0.8000000000000038
95,4.632218800019473,0.8,1.01,0.0,9,0.8000000000000038
96,4.678310199989937,0.8,0.9,0.0,9,0.8000000000000038
97,4.725672800093889,0.8,1.12,0.0,9,0.8000000000000038
98,4.786614799988456,0.8,1.12,0.0,9,0.8000000000000038
99,4.833886999986135,0.8,1.12,0.0,9,0.8000000000000038
100,4.881019900087267,0.8,1.12,0.0,9,0.8000000000000038
101,4.9285863999975845,0.8,1.01,0.0,9,0.8000000000000038
102,4.975562300067395,0.8,0.9,0.0,9,0.8000000000000038
103,5.022114500054158,0.8,1.12,0.0,9,0.8000000000000038
104,5.068915700074285,0.8,1.12,0.0,9,0.8000000000000038
105,5.118101100088097,0.8,1.12,0.0,9,0.8000000000000038
106,5.164320799987763,0.8,1.12,0.0,8,0.8000000000000038
107,5.211661100038327,0.8,1.01,0.0,8,0.8000000000000038
108,5.2584094000048935,0.8,0.9,0.0,8,0.8000000000000038
109,5.306190300034359,0.8,1.01,0.0,8,0.8000000000000038
110,5.353304599993862,0.8,1.01,0.0,8,0.8000000000000038
111,5.399462200002745,0.8,1.01,0.0,8,0.8000000000000038
112,5.4470488000661135,0.8,1.01,0.0,8,0.8000000000000038
113,5.508269499987364,0.8,0.9,0.0,8,0.8000000000000038
114,5.555366400047205,0.8,0.9,0.0,8,0.8000000000000038
115,5.6006003000075,0.8,0.9,0.0,8,0.8000000000000038
116,5.662459200015292,0.8,0.9,0.0,8,0.8000000000000038
117,5.7243299999972805,0.8,0.79,0.0,8,0.8000000000000038
118,5.78610440006014,0.8,0.79,0.0,8,0.8000000000000038
119,5.832664999994449,0.8,0.79,0.0,8,0.8000000000000038
120,5.894812599988654,0.8,0.79,0.0,8,0.8000000000000038
121,5.95730850007385,0.8,0.68,0.0,8,0.8000000000000038
122,6.00379139999859,0.8,0.68,0.0,8,0.8000000000000036
123,6.050450299982913,0.8,0.68,0.0,8,0.8000000000000029
124,6.112431999994442,0.8,0.68,0.0,8,0.8000000000000016
125,6.191606400068849,0.8,0.68,0.0,8,0.7999999999999996
126,6.238861500052735,0.8,0.68,0.0,8,0.7999999999999969
127,6.286282800021581,0.8,0.68,0.0,8,0.7999999999999934
128,6.331766000017524,0.8,0.57,0.0,8,0.7999999999999894
129,6.378033600049093,0.8,0.68,0.0,8,0.7999999999999856
130,6.440015500062145,0.8,0.68,0.0,7,0.7999999999999825
131,6.486799900070764,0.8,0.68,0.0,7,0.7999999999999807
132,6.5344844000646845,0.8,0.68,0.0,7,0.7999999999999812
133,6.581083300057799,0.8,0.68,0.0,7,0.7999999999999843
134,6.6296140000922605,0.8,0.68,0.0,7,0.7999999999999905
135,6.674842200009152,0.8,0.57,0.0,7,0.8
136,6.725303300074302,0.8,0.79,0.0,7,0.8000000000000131
137,6.76811699999962,0.8,0.68,0.0,7,0.8000000000000298
138,6.832887400058098,0.8,0.68,0.0,7,0.8000000000000493
139,6.8794219000265,0.8,0.68,0.0,7,0.8000000000000707
140,6.923608100041747,0.8,0.68,0.0,7,0.8000000000000917
141,6.971224300097674,0.8,0.68,0.0,7,0.8000000000001104
142,7.018223499995656,0.8,0.68,0.0,7,0.8000000000001235
143,7.065040300018154,0.8,0.68,0.0,7,0.8000000000001277
144,7.111042600008659,0.8,0.57,0.0,7,0.8000000000001195
145,7.157181499991566,0.8,0.79,0.0,7,0.8000000000000951
146,7.205594700062648,0.8,0.68,0.0,7,0.8000000000000513
147,7.25125339999795,0.8,0.68,0.0,7,0.7999999999999861
148,7.312345699989237,0.8,0.68,0.0,7,0.799999999999899
149,7.360674600000493,0.8,0.68,0.0,7,0.7999999999997924
150,7.422696700086817,0.8,0.68,0.0,7,0.7999999999996714
151,7.469365200027823,0.8,0.68,0.0,7,0.7999999999995446
152,7.5162668999983,0.8,0.57,0.0,7,0.7999999999994245
153,7.562514799996279,0.8,0.68,0.0,7,0.7999999999993275
154,7.610100000048988,0.8,0.68,0.0,7,0.7999999999992731
155,7.656210400047712,0.8,0.79,0.0,7,0.7999999999992835
156,7.718032600008883,0.8,0.68,0.0,7,0.7999999999993812
157,7.764826300088316,0.8,0.68,0.0,7,0.7999999999995866
158,7.812761200009845,0.8,0.57,0.0,6,0.7999999999999154
159,7.873905000044033,0.8,0.79,0.0,6,0.8000000000003746
160,7.922306000022218,0.8,0.68,0.0,6,0.8000000000009586
161,7.968054600059986,0.8,0.68,0.0,6,0.8000000000016452
162,8.01432840002235,0.8,0.57,0.0,6,0.8000000000023924
163,8.061764599988237,0.8,0.57,0.0,6,0.8000000000031358
164,8.108338000020012,0.8,0.57,0.0,6,0.8000000000037881
165,8.155777200008743,0.8,0.57,0.0,6,0.8000000000042409
166,8.203131500049494,0.8,0.57,0.0,6,0.8000000000043683
167,8.24775680003222,0.8,0.46,0.0,6,0.800000000004037
168,8.310366800054908,0.8,0.46,0.0,6,0.800000000003118
169,8.357179200043902,0.8,0.36,0.0,6,0.8000000000015026
170,8.404633400030434,0.8,0.36,0.0,6,0.7999999999991234
171,8.451463800040074,0.8,0.36,0.0,6,0.7999999999959766
172,8.512909800047055,0.8,0.36,0.0,6,0.7999999999921459
173,8.559409499983303,0.8,0.36,0.0,6,0.7999999999878247
174,8.620268800063059,0.8,0.36,0.0,6,0.799999999983334
175,8.667505600024015,0.8,0.36,0.0,6,0.7999999999791318
176,8.714723200071603,0.8,0.36,0.0,6,0.7999999999758101
177,8.762140500009991,0.8,0.36,0.0,6,0.7999999999740752
178,8.807855000020936,0.8,0.36,0.0,6,0.799999999974708
179,8.855811199988239,0.8,0.36,0.0,6,0.7999999999785004
180,8.902254900080152,0.8,0.36,0.0,6,0.799999999986168
181,8.95290560007561,0.8,0.36,0.0,6,0.7999999999982399
182,9.012356500024907,0.8,0.36,0.0,6,0.8000000000149281
183,9.060212700045668,0.8,0.25,0.0,5,0.8000000000359877
184,9.106245600036344,0.8,0.25,0.0,5,0.8000000000605783
185,9.153072300017811,0.8,0.25,0.0,5,0.800000000087143
186,9.214463100070134,0.8,0.25,0.0,5,0.8000000001133283
187,9.26126020005904,0.8,0.25,0.0,5,0.800000000135964
188,9.308525200001895,0.8,0.25,0.0,5,0.800000000151132
189,9.35453980008606,0.8,0.25,0.0,5,0.800000000154347
190,9.4007605999941,0.8,0.25,0.0,5,0.8000000001408678
191,9.448194000055082,0.8,0.25,0.0,5,0.8000000001061536
192,9.495856299996376,0.8,0.25,0.0,5,0.800000000046462
193,9.54177900007926,0.8,0.25,0.0,5,0.799999999959575
194,9.588610999984668,0.8,0.36,0.0,5,0.7999999998456129
195,9.634924400015734,0.8,0.25,0.0,5,0.7999999997078735
196,9.68267770006787,0.8,0.25,0.0,5,0.7999999995536136
197,9.73084000009112,0.8,0.25,0.0,5,0.7999999993946543
198,9.791568299988285,0.8,0.25,0.0,5,0.7999999992476814
199,9.838964299997317,0.8,0.25,0.0,5,0.7999999991340914
200,9.884939900017343,0.8,0.25,0.0,5,0.7999999990792366
201,9.931859600008464,0.8,0.36,0.0,5,0.7999999991109348
202,9.97870940004941,0.8,0.36,0.0,5,0.7999999992571503
203,10.02620000008028,0.8,0.36,0.0,5,0.7999999995428095
204,10.074141300050542,0.8,0.25,0.0,5,0.7999999999858054
205,10.11895130004268,0.8,0.25,0.0,5,0.8000000005923544
206,10.183667100034654,0.8,0.25,0.0,5,0.8000000013520101
207,10.228842000011356,0.8,0.25,0.0,5,0.8000000022327818
208,10.274375300039535,0.8,0.36,0.0,5,0.8000000031769643
209,10.322429900057614,0.8,0.25,0.0,5,0.8000000040984205
210,10.36958689999301,0.8,0.25,0.0,5,0.8000000048821625
211,10.416197800077498,0.8,0.25,0.0,4,0.8000000053871197
212,10.462428100057878,0.8,0.36,0.0,4,0.8000000054529379
213,10.51093580003362,0.8,0.25,0.0,4,0.800000004911497
214,10.558368400088511,0.8,0.25,0.0,4,0.8000000036035364
215,10.605374100035988,0.8,0.25,0.0,4,0.8000000014003319
216,10.667117500095628,0.8,0.25,0.0,4,0.7999999982297592
217,10.713350899983196,0.8,0.25,0.0,4,0.7999999941053304
218,10.77487820002716,0.8,0.25,0.0,4,0.7999999891559291
219,10.822930500027724,0.8,0.25,0.0,4,0.7999999836530558
220,10.86801249999553,0.8,0.25,0.0,4,0.7999999780315199
221,10.915347600006498,0.8,0.25,0.0,4,0.7999999728987859
222,10.97803630004637,0.8,0.25,0.0,4,0.7999999690277486
223,11.024091000086628,0.8,0.25,0.0,4,0.7999999673277134
224,11.073970300029032,0.8,0.25,0.0,4,0.7999999687889774
225,11.132936100009829,0.8,0.25,0.0,4,0.799999974397779
226,11.184187500039116,0.8,0.25,0.0,4,0.7999999850206332
227,11.225118200061845,0.8,0.25,0.0,4,0.8000000012602528
228,11.288509100093506,0.8,0.25,0.0,4,0.8000000232893529
229,11.353297100053169,0.8,0.25,0.0,4,0.8000000506734957
230,11.401472600060517,0.8,0.25,0.0,4,0.8000000821994799
231,11.446604300057516,0.8,0.25,0.0,4,0.8000001157311716
232,11.492357600014657,0.8,0.36,0.0,4,0.8000001481194936
233,11.553331900038756,0.8,0.25,0.0,4,0.8000001751967933
234,11.60133680002764,0.8,0.25,0.0,4,0.8000001918870765
235,11.6467809000751,0.8,0.25,0.0,4,0.8000001924616933
236,11.693990100058729,0.8,0.25,0.0,3,0.8000001709640365
237,11.742331400047988,0.8,0.25,0.0,3,0.8000001218158537
238,11.803023000014946,0.8,0.36,0.0,3,0.8000000406013545
239,11.848999400041066,0.8,0.25,0.0,3,0.799999925003317
240,11.89605159999337,0.8,0.25,0.0,3,0.7999997758383652
241,11.960085900034755,0.8,0.25,0.0,3,0.799999598107809
242,12.00475830002688,0.8,0.25,0.0,3,0.799999401948069
243,12.052525900071489,0.8,0.25,0.0,3,0.7999992033339534
244,12.099177700001746,0.8,0.25,0.0,3,0.7999990243630326
245,12.146165500045754,0.8,0.25,0.0,3,0.7999988929350872
246,12.193216899991969,0.8,0.25,0.0,3,0.7999988416426453
247,12.23978090006858,0.8,0.25,0.0,3,0.7999989057127228
248,12.302181600010954,0.8,0.25,0.0,3,0.7999991198912868
249,12.34834840008989,0.8,0.25,0.0,3,0.7999995142447243
250,12.395780900027605,0.8,0.25,0.0,3,0.8000001089685806
251,12.444159100065008,0.8,0.25,0.0,3,0.8000009084417572
252,12.50371770001948,0.8,0.25,0.0,3,0.8000018949387699
253,12.565276100067422,0.8,0.25,0.0,3,0.8000030226030632
254,12.611955200089142,0.8,0.25,0.0,3,0.8000042124745339
255,12.672957300092094,0.8,0.25,0.0,3,0.800005349532261
256,12.721376500092449,0.8,0.25,0.0,3,0.8000062828313581
257,12.766779800062068,0.8,0.25,0.0,3,0.8000068298489778
258,12.81384220009204,0.8,0.25,0.0,3,0.8000067860747127
259,12.860896700061858,0.8,0.25,0.0,3,0.8000059406518425
260,12.908125400077552,0.8,0.25,0.0,3,0.8000040984700896
261,12.956735700019635,0.8,0.25,0.0,3,0.8000011085100651
262,13.002537799999118,0.8,0.25,0.0,3,0.7999968974427787
263,13.050578800030053,0.8,0.25,0.0,2,0.7999915065149372
264,13.096737600048073,0.8,0.25,0.0,2,0.7999851286506177
265,13.158220899989828,0.8,0.25,0.0,2,0.7999781415530418
266,13.205195300048215,0.8,0.25,0.0,2,0.7999711315123132
267,13.265565000008792,0.8,0.25,0.0,2,0.7999649017660992
268,13.31355090008583,0.8,0.25,0.0,2,0.7999604587998492
269,13.361901300027966,0.8,0.25,0.0,2,0.7999589701101697
270,13.40855890000239,0.8,0.25,0.0,2,0.7999616878919358
271,13.455424100044183,0.8,0.36,0.0,2,0.7999698350304969
272,13.499962500063702,0.8,0.25,0.0,2,0.7999844528221636
273,13.547613100032322,0.8,0.25,0.0,2,0.80000621406661
274,13.595511100022122,0.8,0.25,0.0,2,0.8000352105160957
275,13.644762200070543,0.8,0.25,0.0,2,0.8000707299198007
276,13.691980100004002,0.8,0.25,0.0,2,0.8001110446765332
277,13.7346697000321,0.8,0.25,0.0,2,0.8001532408119632
278,13.781050199992023,0.8,0.25,0.0,2,0.8001931218251082
279,13.841404400067404,0.8,0.25,0.0,2,0.8002252259088924
280,13.886376600014046,0.8,0.25,0.0,2,0.8002429960000523
281,13.9325498000253,0.8,0.25,0.0,2,0.8002391388448036
282,13.979234100086614,0.8,0.25,0.0,2,0.800206200615329
283,14.026418199995533,0.8,0.25,0.0,2,0.8001373716133005
284,14.07304839999415,0.8,0.25,0.0,2,0.8000275106677857
285,14.12054670008365,0.8,0.25,0.0,2,0.7998743509832038
286,14.166578800068237,0.8,0.36,0.0,2,0.799679814230271
287,14.213718399987556,0.8,0.25,0.0,2,0.7994513204157494
288,14.260208300082011,0.8,0.25,0.0,2,0.7992029404939265
289,14.306790300062858,0.8,0.25,0.0,1,0.7989562010149296
290,14.35304980003275,0.8,0.25,0.0,1,0.7987403207710568
291,14.39847620006185,0.8,0.25,0.0,1,0.798591644852676
292,14.444821000099182,0.8,0.25,0.0,1,0.7985520488593487
293,14.492246100096963,0.8,0.25,0.0,1,0.7986661223945786
294,14.539094700012356,0.8,0.25,0.0,1,0.7989770128303884
295,14.585162200033665,0.8,0.25,0.0,1,0.7995209223370459
296,14.631451900000684,0.8,0.25,0.0,1,0.8003204050817481
297,14.678097700001672,0.8,0.25,0.0,1,0.8013768048595
298,14.7239600000903,0.8,0.25,0.0,1,0.8026623983403187
299,15.795514900004491,0.8,0.25,10.0,0,0.8041130512015826
300,15.842180600040592,0.8,0.25,10.0,0,0.8056224320562231
301,15.88833300000988,0.8,0.79,10.0,51,0.8070390333528679
302,15.935118400026113,0.8,0.25,10.0,51,0.808167383745096
303,15.981304900022224,0.8,2.43,10.0,52,0.8087748623234341
304,16.027206600061618,0.8,1.34,10.0,52,0.8086053991138804
305,16.075857800082304,0.8,3.41,10.0,53,0.8074010281737114
306,16.12159530003555,0.8,3.74,10.0,53,0.8049317170836674
307,16.168694599997252,0.8,2.43,10.0,54,0.801033111801621
308,16.21458510006778,0.8,4.06,10.0,54,0.7956508129136597
309,16.26333570003044,0.8,3.19,10.0,55,0.7888885723202161
310,16.310770100099035,0.8,3.41,10.0,55,0.7810564394007693
311,16.3568087000167,0.8,4.82,10.0,56,0.7727135065139086
312,16.404349800082855,0.8,3.95,10.0,56,0.7646986647951639
313,16.452106600045227,0.8,4.5,10.0,56,0.7581418867138427
314,16.4977095000213,0.8,4.39,10.0,57,0.7544482441024003
315,16.545505100046284,0.8,4.72,10.0,57,0.7552474172517867
316,16.592681600013748,0.8,4.93,10.0,58,0.7623031257051001
317,16.639036100008525,0.8,5.04,10.0,58,0.777379966688341
318,16.687541800085455,0.8,4.61,10.0,59,0.8020697798287353
319,16.733185700024478,0.8,6.35,10.0,59,0.8375859709548723
320,16.794492700020783,0.8,5.81,10.0,60,0.8845421947629053
321,16.842188599985093,0.8,6.02,10.0,60,0.9427412186580253
322,16.889153000083752,0.8,5.48,10.0,60,1.0110102757314667
323,16.936825099983253,0.8,7.0,10.0,60,1.0871301673668436
324,16.98239540006034,0.8,6.57,10.0,61,1.167916013426118
325,17.029016899992712,1.61,6.02,10.0,61,1.249504170840062
326,17.07574590004515,1.61,7.77,10.0,58,1.3278431459036326
327,17.13827840005979,1.61,6.35,10.0,58,1.399275481482124
328,17.19820320000872,1.61,6.9,10.0,59,1.4610343510727088
329,17.24521220009774,1.61,6.79,10.0,59,1.5115395261003803
330,17.306681800051592,1.61,7.44,10.0,60,1.5504861242770174
331,17.35307150008157,1.61,8.97,10.0,60,1.5787745681225167
332,17.39909040008206,1.61,7.33,10.0,61,1.5983325360933551
333,17.44475930009503,1.61,9.08,10.0,61,1.611868903676224
334,17.492151500075124,1.61,7.44,10.0,62,1.6225896690990302
335,17.55562480003573,1.61,7.88,10.0,62,1.6338976224237343
336,17.60143560008146,1.61,9.08,10.0,62,1.6490918066134062
337,17.649240800063126,1.61,8.64,10.0,62,1.671080123565951
338,17.695897900033742,1.61,8.53,10.0,63,1.7021189552349478
339,17.74271750007756,1.61,10.27,10.0,63,1.7435973050540106
340,17.789663800038397,1.61,8.75,10.0,64,1.7958893439238248
341,17.836867000092752,1.61,10.71,10.0,64,1.8583077447059033
342,17.88312680006493,1.61,9.08,10.0,65,1.9291999866016427
343,17.943979300092906,2.4,11.04,10.0,65,2.0062274876721933
344,17.990586300031282,2.41,9.18,10.0,62,2.08681444397709
345,18.0355935000116,2.41,9.62,10.0,62,2.168648297126503
346,18.08167860005051,2.41,10.6,10.0,62,2.25005600380034
347,18.128836899995804,2.41,9.73,10.0,62,2.330145619741608
348,18.176398499985225,2.41,11.36,10.0,63,2.40871744095814
349,18.237340899999253,2.41,10.06,10.0,63,2.4860128394248204
350,18.285260000033304,2.41,9.95,10.0,64,2.5623813532116464
351,18.363481100066565,2.41,11.91,10.0,64,2.6379455340952904
352,18.4126094999956,2.41,10.38,10.0,65,2.712341847645134
