,time,angle,pressure,set_point,motor_speed,Filtered_angle
0,0.0322009000228717,-9.12,0.68,0.0,77,-9.123311758191456
1,0.0630441999528557,-9.12,2.1,0.0,77,-9.11781220806309
2,0.094244199921377,-9.12,0.68,0.0,78,-9.120933763297035
3,0.1263674999354407,-9.12,1.88,0.0,78,-9.120468036597991
4,0.1745086999144405,-9.12,1.55,0.0,78,-9.117968712690582
5,0.2068198999622836,-9.12,2.54,0.0,79,-9.123763576035532
6,0.2371663999510929,-8.41,1.88,0.0,79,-8.40433548778162
7,0.2706835999852046,-8.34,5.15,0.0,79,-8.347724701908053
8,0.3008044000016525,-8.34,3.63,0.0,76,-8.33007361472053
9,0.331939399940893,-8.34,2.75,0.0,76,-8.352245682935333
10,0.379044699948281,-8.34,3.63,0.0,76,-8.325344361462323
11,0.4130521999904886,-7.57,5.15,0.0,73,-7.5871293163079505
12,0.4432594999670982,-7.57,4.61,0.0,73,-7.550357845718468
13,0.4909609999740496,-7.57,4.82,0.0,73,-7.592172711418594
14,0.5208248000126332,-7.57,5.04,0.0,74,-7.545298154085822
15,0.5521930999821052,-7.57,5.15,0.0,74,-7.597211277560278
16,0.5841104999417439,-7.57,5.48,0.0,74,-7.5403176956699065
17,0.6170848999172449,-7.57,5.7,0.0,75,-7.6020948944131375
18,0.6475222000153735,-7.57,5.91,0.0,75,-7.535572808350114
19,0.6791242000181228,-7.57,6.02,0.0,75,-7.606655471716533
20,0.7087320999708027,-7.57,6.02,0.0,75,-7.531245414497769
21,0.7413242999464273,-7.57,6.35,0.0,75,-7.61069892488004
22,0.7712544999085367,-7.57,6.68,0.0,75,-7.527536055523775
23,0.8028241000138223,-6.59,6.68,0.0,75,-6.634028038194953
24,0.8346423999173567,-6.48,6.9,0.0,71,-6.434626105583868
25,0.8682484999299049,-6.48,8.75,0.0,71,-6.52648829662801
26,0.8982765999389812,-6.48,6.35,0.0,71,-6.43263947621836
27,0.9450109999161214,-6.48,7.44,0.0,71,-6.527980535077269
28,0.9762107999995352,-6.48,7.33,0.0,71,-6.431662243176454
29,1.020963600021787,-6.48,9.4,0.0,71,-6.528420612838078
30,1.052930900012143,-6.48,7.88,0.0,72,-6.4317832184426935
31,1.0975038999458775,-6.48,7.88,0.0,72,-6.527714185157109
32,1.1288992000045257,-6.48,7.33,0.0,72,-6.433097288193385
33,1.1610473999753594,-5.66,8.31,0.0,72,-5.705776472964052
34,1.217052299994975,-5.66,9.08,0.0,72,-5.615664191471038
35,1.256376700010151,-5.66,8.53,0.0,69,-5.702588053156648
36,1.3011675999732688,-5.66,8.53,0.0,69,-5.619452953387407
37,1.3479684999911117,-5.66,8.86,0.0,70,-5.698232340630213
38,1.37857579998672,-5.66,8.09,0.0,70,-5.624331144719973
39,1.4110113999340683,-5.66,9.08,0.0,70,-5.692887148889989
40,1.442240700009279,-5.66,8.64,0.0,70,-5.630075733401066
41,1.472831799997948,-4.82,9.29,0.0,70,-4.846824929296524
42,1.50342169997748,-4.82,10.93,0.0,70,-4.796357777373476
43,1.5649238999467343,-4.82,9.51,0.0,66,-4.840436743450028
44,1.611523999948986,-4.82,9.18,0.0,66,-4.802725842764408
45,1.6423580999253318,-4.82,9.62,0.0,67,-4.834222116711043
46,1.675148700014688,-4.82,11.04,0.0,67,-4.80865270778948
47,1.7192394000012428,-4.82,11.26,0.0,67,-4.828712665992789
48,1.7513156000059098,-4.82,9.95,0.0,67,-4.8136249551332
49,1.796707500005141,-4.82,9.29,0.0,67,-4.82438274811416
50,1.843851299956441,-4.82,9.51,0.0,68,-4.817226568718706
51,1.877074799966067,-4.82,10.17,0.0,68,-4.821572010834642
52,1.90732689993456,-4.03,12.02,0.0,68,-4.029211152467947
53,1.9550436999415977,-4.02,10.27,0.0,64,-4.020418912855139
54,1.986100499983877,-4.02,10.49,0.0,64,-4.019557150512044
55,2.017689000000246,-4.02,9.95,0.0,64,-4.02082990199535
56,2.047806499991566,-4.02,10.06,0.0,65,-4.018458226784137
57,2.077624999918044,-3.31,10.17,0.0,65,-3.3125364986389254
58,2.109578099916689,-3.23,10.49,0.0,65,-3.226228489861372
59,2.141486699925736,-3.23,10.6,0.0,61,-3.2352051342453336
60,2.1724604999180883,-3.23,10.49,0.0,61,-3.22320336534503
61,2.204143999959342,-3.23,10.71,0.0,61,-3.2385056608770997
62,2.235963399987668,-3.23,10.82,0.0,61,-3.219708295818987
63,2.2689095999812707,-3.23,11.15,0.0,61,-3.2421136772587205
64,2.298108799965121,-3.23,10.93,0.0,61,-3.216070375877264
65,2.329328399966471,-3.23,10.93,0.0,61,-3.2456965869320693
66,2.375846299924888,-3.23,10.93,0.0,62,-3.2126293430230892
67,2.40579569991678,-3.23,12.13,0.0,62,-3.248907236949855
68,2.43800129997544,-3.23,12.24,0.0,62,-3.2097384591235976
69,2.4700264999410138,-3.23,11.15,0.0,62,-3.2513893566574192
70,2.501560700009577,-3.23,11.26,0.0,62,-3.207751905916054
71,2.5336745999520645,-3.23,11.26,0.0,62,-3.252798138419854
72,2.564148399978876,-3.23,11.36,0.0,62,-3.2069954737771997
73,2.596478399937041,-3.23,11.47,0.0,62,-3.2528389560164173
74,2.641122799948789,-3.23,11.04,0.0,62,-3.207717858213974
75,2.672588699962944,-2.4,11.47,0.0,59,-2.4213263148859645
76,2.704463299945928,-2.4,11.58,0.0,59,-2.3800229173107277
77,2.736642599920742,-2.4,11.47,0.0,59,-2.418253649255099
78,2.781507799983956,-2.4,11.47,0.0,59,-2.3838126164582034
79,2.8281977999722585,-2.4,11.69,0.0,59,-2.413819701033916
80,2.8599146999185905,-2.4,11.69,0.0,59,-2.3887999781374685
81,2.889493800001219,-2.4,11.69,0.0,59,-2.408383971695349
82,2.9209829999599606,-2.4,13.33,0.0,59,-2.3945682100535906
83,2.952358999988064,-2.4,11.91,0.0,59,-2.4024069060940483
84,2.9860348999500275,-2.4,11.8,0.0,59,-2.4006253580375807
85,3.014098000014201,-2.4,11.8,0.0,59,-2.3964009957882566
86,3.0460805000038818,-2.4,12.24,0.0,59,-2.4064485371893007
87,3.0776830000104383,-2.4,13.54,0.0,59,-2.3908898470175672
88,3.1224334000144154,-2.4,12.02,0.0,59,-2.411522980432781
89,3.155811999924481,-2.4,13.65,0.0,59,-2.3863695812732217
90,3.2014311999082565,-2.4,12.13,0.0,60,-2.415381610636695
91,3.2323854999849573,-2.4,13.76,0.0,60,-2.383266912458611
92,3.277730699977837,-2.4,12.24,0.0,60,-2.4176506177022015
93,3.3094777999212965,-2.4,13.65,0.0,60,-2.381888716063606
94,3.3409998000133783,-1.61,12.56,0.0,60,-1.6281056231281141
95,3.3726759999990463,-1.61,12.35,0.0,56,-1.592360909641432
96,3.4194993999553844,-1.61,12.35,0.0,56,-1.626731915911035
97,3.4506367999129,-1.61,12.24,0.0,56,-1.5945826448735307
98,3.4822261999361217,-1.61,12.35,0.0,56,-1.6237392628867897
99,3.5274086999706924,-1.61,12.46,0.0,56,-1.598250269781188
100,3.5740225999616086,-1.61,12.67,0.0,56,-1.6195069512491997
101,3.605244899983518,-1.61,12.35,0.0,56,-1.6029267044226752
102,3.637473999988288,-1.61,12.46,0.0,56,-1.6145135564666215
103,3.6682921999599785,-1.61,12.56,0.0,56,-1.6081066585483503
104,3.700426699942909,-1.61,12.78,0.0,56,-1.6092775690832
105,3.730159799917601,-1.61,12.35,0.0,56,-1.6132709663741733
106,3.7597071999916807,-1.61,12.56,0.0,56,-1.6043069985947909
107,3.822463999968022,-1.61,13.22,0.0,57,-1.6179342199371973
108,3.8538918999256566,-1.61,13.98,0.0,57,-1.6000532816492348
109,3.899125399999321,-1.61,12.56,0.0,57,-1.6216905550282306
110,3.945872699958272,-1.61,12.46,0.0,57,-1.5968645820170013
111,3.9759639999829233,-0.89,12.67,0.0,53,-0.9042622696310719
112,4.005823099985719,-0.82,12.56,0.0,53,-0.804935672861378
113,4.036611699964851,-0.82,12.78,0.0,53,-0.8355466111670007
114,4.067462199949659,-0.82,12.78,0.0,53,-0.8042758367545819
115,4.099758199998178,-0.82,12.78,0.0,53,-0.8356197994968928
116,4.131166899926029,-0.82,12.78,0.0,53,-0.8047379905734808
117,4.161854999954812,-0.82,12.78,0.0,53,-0.8346831072846881
118,4.195004599983804,-0.82,12.78,0.0,53,-0.8060823818964887
119,4.23720729991328,-0.82,12.67,0.0,53,-0.8330008933289882
120,4.271036499994807,-0.82,12.78,0.0,53,-0.8080320523654229
121,4.301649599918164,-0.82,12.56,0.0,53,-0.8308525056741713
122,4.347012299927883,-0.82,12.78,0.0,53,-0.8103137547708044
123,4.378663299954496,-0.82,12.67,0.0,53,-0.8284982214228248
124,4.409680999931879,-0.82,12.67,0.0,53,-0.8126855446031216
125,4.441558999940753,-0.82,12.67,0.0,53,-0.8261576700446048
126,4.473607699968852,-0.82,12.67,0.0,53,-0.8149528449725855
127,4.518448899965733,-0.82,12.67,0.0,53,-0.8239987433311062
128,4.549490500008687,-0.82,12.46,0.0,53,-0.8169751180113606
129,4.579697499983013,-0.82,12.35,0.0,53,-0.822134780261027
130,4.611561800003983,-0.82,12.67,0.0,53,-0.8186653805259594
131,4.643923299969174,-0.82,12.67,0.0,53,-0.8206278098054354
132,4.675125399953686,-0.82,12.67,0.0,53,-0.8199847194431238
133,4.706525999936275,-0.82,12.46,0.0,53,-0.8194957917810745
134,4.736689199926332,-0.82,13.44,0.0,53,-0.8209337434738494
135,4.76732099999208,-0.82,12.56,0.0,53,-0.8187220643683729
136,4.799320299993269,-0.82,12.67,0.0,54,-0.8215426017016318
137,4.829444799921475,-0.82,12.56,0.0,54,-0.8182655383765469
138,4.8620981000131,-0.82,12.56,0.0,54,-0.8218608531423571
139,4.8917504999553785,-0.82,12.56,0.0,54,-0.8180705306833497
140,4.923955300007947,-0.82,13.65,0.0,54,-0.8219481216577657
141,4.955743399914354,-0.82,12.56,0.0,54,-0.8180754690876145
142,4.987405899912119,-0.82,12.35,0.0,54,-0.8218661466186316
143,5.017892399919219,-0.82,12.56,0.0,54,-0.8182200041924356
144,5.049489800003357,-0.82,12.67,0.0,54,-0.8216725605757368
145,5.0818039999576285,-0.82,12.67,0.0,54,-0.8184503162793151
146,5.112486999947578,-0.82,12.46,0.0,54,-0.8214165012027933
147,5.144827699987218,-0.82,13.76,0.0,54,-0.8187226001339275
148,5.176803299924359,-0.82,12.67,0.0,54,-0.8211359986075354
149,5.206420499947853,-0.82,12.78,0.0,54,-0.8190048489803364
150,5.238828699919395,-0.82,12.56,0.0,54,-0.8208569674317279
151,5.269899499951862,-0.82,12.67,0.0,54,-0.81927714576791
152,5.302564300014637,-0.82,12.46,0.0,54,-0.8205935683535797
153,5.349164200015366,-0.82,12.35,0.0,54,-0.8195307151633952
154,5.379799599992111,-0.82,12.67,0.0,54,-0.82034967543915
155,5.412501999991946,-0.82,12.35,0.0,54,-0.8197660036703399
156,5.442735699936748,-0.82,12.46,0.0,54,-0.8201211829691407
157,5.506070300005376,-0.82,12.67,0.0,54,-0.819990049644793
158,5.537683799979277,-0.82,12.67,0.0,54,-0.8198988968569022
159,5.56969269993715,-0.82,13.76,0.0,54,-0.8202133900897718
160,5.601663999957964,-0.82,12.67,0.0,54,-0.8196717718670106
161,5.633833099971525,-0.82,12.56,0.0,54,-0.820446735707652
162,5.665270600002259,-0.82,12.78,0.0,54,-0.8194302689881957
163,5.710597799974494,-0.82,12.67,0.0,54,-0.8206976360158897
164,5.757852799957618,-0.82,12.67,0.0,54,-0.8191696126837719
165,5.8059482999378815,-0.82,12.67,0.0,54,-0.820967355707829
166,5.849702599924058,-0.82,12.67,0.0,54,-0.8188927235791582
167,5.879875899991021,-0.82,12.46,0.0,54,-0.8212481920321909
168,5.91150899999775,-0.82,12.56,0.0,54,-0.8186125898790976
169,5.9421983999200165,-0.82,12.67,0.0,54,-0.8215214777726345
170,5.973308900021948,-0.82,12.67,0.0,54,-0.8183538249542509
171,6.019642199971713,-0.82,12.46,0.0,55,-0.8217565294768028
172,6.052431399933994,-0.82,12.78,0.0,55,-0.8181531463836623
173,6.08345549996011,-0.82,13.54,0.0,55,-0.8219108074347977
174,6.113389599951915,-0.82,12.89,0.0,55,-0.8180585127877881
175,6.145087499986403,-0.82,13.33,0.0,55,-0.821931542213259
176,6.176897499943152,-0.82,12.67,0.0,55,-0.8181266799580524
177,6.207427399931476,-0.82,12.78,0.0,55,-0.8217590410590647
178,6.237542500020936,-0.82,12.78,0.0,55,-0.8184189983756328
179,6.269009099924006,-0.82,12.78,0.0,55,-0.8213318051898761
180,6.299471499980427,-0.82,12.78,0.0,55,-0.8189953805809292
181,6.332790700020269,-0.82,12.67,0.0,55,-0.8205934565406292
182,6.381715499912389,-0.82,12.67,0.0,55,-0.8199065269302963
183,6.426540000014938,-0.82,13.0,0.0,55,-0.8195012838532906
184,6.456686099991202,-0.82,12.89,0.0,55,-0.8211847158678022
185,6.487316399929114,-0.82,12.67,0.0,55,-0.8180359719779364
186,6.517891399911605,-0.82,12.89,0.0,55,-0.8228337379191215
187,6.550546300015412,-0.82,12.89,0.0,55,-0.8162117804632552
188,6.581391799962148,-0.82,12.67,0.0,55,-0.8248188717010405
189,6.61219799995888,-0.82,13.87,0.0,55,-0.8140861016781311
190,6.644001599983312,-0.82,12.89,0.0,55,-0.8270581471009262
191,6.676075899973512,-0.82,12.89,0.0,55,-0.8117669777478925
192,6.707948299939744,-0.82,12.67,0.0,55,-0.8294164877147265
193,6.737518899957649,-0.82,13.0,0.0,55,-0.8094168219502503
194,6.7697080000070855,-0.82,12.89,0.0,55,-0.8317046346360268
195,6.80069329997059,-0.82,12.78,0.0,55,-0.8072503151234373
196,6.831176399951801,-0.82,13.0,0.0,55,-0.8336849818348314
197,6.879242999944836,-0.82,12.89,0.0,55,-0.8055242789972532
198,6.927535899914801,-0.82,12.89,0.0,55,-0.8350865497155427
199,7.984522299957462,-0.82,13.22,10.0,56,-0.8045173169564009
200,8.016789200017229,-0.82,15.4,10.0,107,-0.8356312377870537
201,8.048573500011116,-0.82,13.22,10.0,107,-0.8044972065299895
202,8.078736600000411,-0.82,13.11,10.0,107,-0.8350731859882741
203,8.111189999966882,-0.82,13.22,10.0,108,-0.8056744641605482
204,8.142834899947047,0.01,15.72,10.0,108,-0.0032523114775290657
205,8.174803799949586,0.11,15.94,10.0,108,0.1218566558964225
206,8.206040099961683,0.11,15.83,10.0,105,0.09984792613040089
207,8.236803199979477,0.11,16.16,10.0,105,0.11816058237466973
208,8.267705200007185,0.11,13.0,10.0,105,0.10408971070104317
209,8.299504700000398,0.89,13.54,10.0,105,0.8934332302215843
210,8.345934099983424,0.98,14.96,10.0,101,0.9792357444940883
211,8.379192300024442,0.98,13.65,10.0,101,0.9779417512953189
212,8.40986209991388,1.88,13.22,10.0,97,1.8849901636635795
213,8.440778199932538,1.98,14.09,10.0,97,1.9720202360056867
214,8.470457799965516,1.98,13.33,10.0,97,1.9909678176468109
215,8.500796900014393,1.98,15.83,10.0,97,1.9661103151738342
216,8.534011399955489,1.98,13.54,10.0,98,1.9966783699603414
217,8.577852400019765,1.98,16.71,10.0,98,1.9607321652374354
218,8.62419260002207,1.98,13.65,10.0,98,2.0015964972547007
219,8.656389600015245,2.74,14.85,10.0,95,2.7163891984172097
220,8.687059000018053,2.74,13.98,10.0,95,2.7652681749128107
221,8.717852599918842,2.74,17.8,10.0,95,2.7134614967822093
222,8.748887000023387,2.74,15.07,10.0,95,2.767404156109336
223,8.779402600019239,2.74,15.51,10.0,95,2.7121405114219925
224,8.812113099964336,2.74,14.2,10.0,95,2.767910561161184
225,8.844310999964364,3.52,17.14,10.0,93,3.492424913114178
226,8.888745600008406,3.52,15.51,10.0,93,3.546881870567998
227,8.936632699915208,3.52,14.42,10.0,93,3.494131185318577
228,8.968693099915981,3.52,17.9,10.0,93,3.5445794870157816
229,9.000283199944533,3.52,17.58,10.0,93,3.4969408332303713
230,9.04489709995687,4.3,15.51,10.0,89,4.321351280921535
231,9.076976799988188,4.39,15.72,10.0,89,4.370504882844799
232,9.10782549995929,4.39,17.14,10.0,89,4.407525631923068
233,9.140278999926522,5.11,15.72,10.0,90,5.094524949907737
234,9.171392799937166,5.2,17.14,10.0,90,5.2133746385883235
235,9.202179500018246,5.2,16.81,10.0,90,5.188744779948814
236,9.236383299925365,5.2,16.05,10.0,86,5.209146402804258
237,9.26866289996542,5.2,17.9,10.0,86,5.192924627595736
238,9.314418399939314,5.2,15.51,10.0,86,5.205065790318886
239,9.357755500008352,5.2,15.18,10.0,86,5.196863146485101
240,9.388157699955627,5.92,16.27,10.0,86,5.921302633434973
241,9.43549449997954,6.0,17.58,10.0,83,6.000427670612614
242,9.481855200021528,6.0,15.62,10.0,83,5.997952186606792
243,9.511208400013857,6.81,16.38,10.0,83,6.813551236333924
244,9.557115499977954,6.82,17.58,10.0,79,6.815071899977683
245,9.588685599970631,6.82,16.49,10.0,79,6.826164183404149
246,9.619130100007167,6.82,18.12,10.0,79,6.8127582443991574
247,9.650270999991337,6.82,17.03,10.0,79,6.828141459706481
248,9.681481399922632,6.82,15.83,10.0,79,6.81115553087982
249,9.711251699947752,6.82,17.03,10.0,79,6.8293347496106955
250,9.742419700021856,6.82,15.94,10.0,80,6.810398557035545
251,9.788209999911489,6.82,16.6,10.0,80,6.82964138273254
252,9.819760499987751,7.64,16.81,10.0,80,7.630538445441886
253,9.851162299979478,7.64,16.05,10.0,76,7.649080725678015
254,9.899663500022143,7.64,16.81,10.0,76,7.631470730001043
255,9.92904289998114,7.64,18.34,10.0,76,7.647847186226899
256,9.96095520001836,7.64,16.81,10.0,76,7.632918722109951
257,9.99183469999116,7.64,18.01,10.0,76,7.646282266749961
258,10.023647399968468,7.64,18.01,10.0,76,7.634497975388749
259,10.069002999924123,7.64,16.81,10.0,76,7.644790912452243
260,10.100751999998463,7.64,16.92,10.0,76,7.635804784691028
261,10.132486199960113,7.64,16.38,10.0,76,7.643754661613311
262,10.177818799973466,7.64,16.81,10.0,77,7.636499983308711
263,10.209085699985735,8.42,18.56,10.0,77,8.42345092716113
264,10.240106599987485,8.42,18.23,10.0,77,8.416385248712253
265,10.272489599999972,8.42,17.14,10.0,73,8.42398729840657
266,10.303581699961796,8.42,16.92,10.0,73,8.415444523243693
267,10.334774699993432,8.42,17.14,10.0,73,8.425300925406772
268,10.36702000000514,9.17,17.14,10.0,69,9.163796283827235
269,10.412238799966872,9.18,16.92,10.0,69,9.187245238083353
270,10.44550019991584,9.18,17.14,10.0,69,9.171590606090263
271,10.49100279994309,9.18,16.92,10.0,69,9.189682134154422
272,10.52134139998816,9.18,17.03,10.0,69,9.168949764723031
273,10.551801899913698,9.18,16.92,10.0,69,9.192500040712002
274,10.59849739994388,9.18,17.14,10.0,69,9.165983647399646
275,10.62826219992712,9.18,17.03,10.0,69,9.195581492504653
276,10.659648699918762,9.18,18.78,10.0,69,9.162825447017237
277,10.691854699980468,9.18,17.14,10.0,69,9.198770862875907
278,10.738016100018283,9.18,16.92,10.0,69,9.159658310125028
279,10.768586899968795,9.18,16.92,10.0,69,9.201854204310553
280,10.800547699909655,9.18,17.03,10.0,69,9.156728271883512
281,10.845946099958384,9.18,18.56,10.0,69,9.204554292482797
282,10.87891640001908,9.18,18.78,10.0,70,9.154340473215573
283,10.909007099922746,9.18,17.25,10.0,70,9.206543899890601
284,10.940122499945574,9.18,17.03,10.0,70,9.152835667119007
285,10.97272239997983,9.18,17.36,10.0,70,9.207480199485591
286,11.017837399966083,9.18,17.25,10.0,70,9.152544272787399
287,11.049605099949986,9.18,17.25,10.0,70,9.207062808143586
288,11.081308899912983,10.14,18.01,10.0,65,10.113716004326994
289,11.111853900016284,10.15,17.47,10.0,65,10.175114776377038
290,11.143978799926115,10.15,17.36,10.0,65,10.126436020284956
291,11.174211699981242,10.15,17.36,10.0,65,10.171652325550346
292,11.20583579991944,10.15,17.36,10.0,65,10.130589767561256
293,11.237999200006016,10.15,17.36,10.0,65,10.166875763955089
294,11.269245599978603,10.15,17.36,10.0,65,10.13590709705276
295,11.30189280002378,10.15,17.36,10.0,65,10.161110117671491
296,11.347263799980285,10.15,17.36,10.0,65,10.142020818238176
297,11.378243800019844,10.15,17.36,10.0,65,10.154754206259346
298,11.410261899931356,10.15,17.36,10.0,65,10.14850916107372
299,11.44219550001435,10.15,17.25,10.0,65,10.14824558384263
300,11.4739962000167,10.15,17.25,10.0,65,10.154924807128474
301,11.50702929997351,10.15,16.81,10.0,65,10.142036080005209
302,11.551613199990244,10.15,17.36,10.0,65,10.160816290117973
303,11.584206499974243,10.15,17.25,10.0,65,10.136571912899436
304,11.615055599948391,10.15,17.25,10.0,65,10.165747918666487
305,11.64694249990862,10.15,17.25,10.0,65,10.132272203696543
306,11.677835799986497,10.15,17.25,10.0,65,10.169324301805245
307,11.7239354000194,10.15,17.25,10.0,65,10.129500010549211
308,11.75378239993006,10.15,17.25,10.0,65,10.171225053439777
309,11.799606699962167,10.15,17.25,10.0,65,10.128520715557237
310,11.861507599940524,9.39,16.81,10.0,65,9.41125415221136
311,11.893474799930118,9.39,17.25,10.0,69,9.369445697350312
312,11.939546399982646,9.39,17.25,10.0,69,9.409397570118712
313,11.969926599995231,9.39,17.25,10.0,69,9.372186498397447
314,12.000905499910004,9.39,17.25,10.0,69,9.405841285294162
315,12.032615899923258,9.39,17.25,10.0,69,9.376472211259186
316,12.065071600023655,9.39,16.81,10.0,69,9.400925863499884
317,12.095838399953209,9.39,17.25,10.0,69,9.381907113159626
318,12.127663799910806,9.39,16.81,10.0,69,9.395089505904128
319,12.158984899986535,9.39,17.14,10.0,69,9.388021454593616
320,12.190750499954447,9.39,16.92,10.0,69,9.388824036479113
321,12.2230675999308,9.39,17.14,10.0,69,9.394309678305781
322,12.254516099928878,9.39,17.14,10.0,69,9.382641189681504
323,12.301101199933328,9.39,16.92,10.0,69,9.400261007902335
324,12.33235269994475,9.39,16.92,10.0,69,9.377043696012425
325,12.362457199953496,9.39,17.25,10.0,69,9.405388173952245
326,12.393571299966425,9.39,17.03,10.0,69,9.372495252813227
327,12.42482099996414,9.39,17.36,10.0,69,9.409260212712484
328,12.457033699960448,9.39,16.92,10.0,69,9.36938354474869
329,12.48889119992964,9.39,17.25,10.0,69,9.411544953418588
330,12.535033499938436,10.17,17.36,10.0,65,10.147971219045422
331,12.566395099973306,10.17,17.14,10.0,65,10.192063989889382
332,12.599435099982657,10.17,17.25,10.0,65,10.148340537191771
