,time,angle,pressure,set_point,motor_speed,Filtered_angle
0,0.0317591000348329,-0.24,6.13,0.0,35,-0.2400000000294447
1,0.0628033999819308,-0.24,6.46,0.0,35,-0.23999999991267668
2,0.0934224999509751,-0.24,6.24,0.0,35,-0.24000000015624537
3,0.1248152999905869,-0.24,7.0,0.0,35,-0.23999999976773126
4,0.1561287000076845,-0.24,6.46,0.0,35,-0.24000000030918642
5,0.1876301999436691,-0.24,6.24,0.0,35,-0.23999999962157909
6,0.2345256999833509,-0.24,6.9,0.0,35,-0.24000000042914738
7,0.2641527999658137,-0.24,6.35,0.0,35,-0.23999999955127027
8,0.2961937999352813,-0.24,6.24,0.0,35,-0.24000000042351693
9,0.3266574000008404,-0.24,6.46,0.0,35,-0.23999999965994293
10,0.3579079000046476,-0.24,6.35,0.0,35,-0.24000000018672302
11,0.3897996000014245,-0.24,7.22,0.0,35,-0.24000000004426994
12,0.4358496000058949,-0.24,6.46,0.0,35,-0.23999999964543697
13,0.4809958999976516,-0.24,6.24,0.0,35,-0.24000000073721414
14,0.5131930999923497,-0.24,6.46,0.0,35,-0.23999999882563133
15,0.5436654000077397,-0.24,6.46,0.0,35,-0.2400000016353343
16,0.5758437999757007,-0.24,6.35,0.0,35,-0.2399999979245534
17,0.6069988999515772,-0.24,6.57,0.0,35,-0.24000000243612868
18,0.6390739999478683,-0.24,6.46,0.0,35,-0.2399999973534073
19,0.6702752999262884,-0.24,7.33,0.0,35,-0.24000000262756832
20,0.7168401000089943,-0.24,6.68,0.0,35,-0.23999999770261596
21,0.7642922999802977,-0.24,7.33,0.0,35,-0.2400000015805406
22,0.8100611999398097,-0.24,6.68,0.0,35,-0.23999999958128734
23,0.842459199950099,-0.24,6.35,0.0,35,-0.2399999987837736
24,0.8740741999354213,-0.24,6.46,0.0,35,-0.2400000033079066
25,0.9198692999780178,-0.24,6.68,0.0,35,-0.23999999421890228
26,0.9498861000174657,-0.24,6.46,0.0,35,-0.24000000848890207
27,0.979474199935794,-0.24,6.9,0.0,35,-0.23999998879642762
28,1.011054000002332,-0.24,6.79,0.0,35,-0.2400000136133255
29,1.0415309999370947,-0.24,6.57,0.0,35,-0.2399999846722706
30,1.073140799999237,-0.24,6.57,0.0,35,-0.24000001589415557
31,1.1035998000297695,-0.24,6.79,0.0,35,-0.23999998517254503
32,1.136914899921976,-0.24,6.79,0.0,35,-0.24000001165423607
33,1.1670836999546736,-0.24,6.57,0.0,35,-0.23999999402802707
34,1.1975042999256402,-0.24,6.68,0.0,35,-0.23999999752150414
35,1.2293826999375597,-0.24,6.79,0.0,35,-0.24000001373055996
36,1.2623287999304011,-0.24,6.79,0.0,35,-0.2399999724945409
37,1.2923483999911696,-0.24,6.57,0.0,35,-0.2400000431304657
38,1.3240641999291256,-0.24,6.79,0.0,35,-0.23999994052721632
39,1.3566154999425637,-0.24,6.79,0.0,35,-0.24000007490254419
40,1.3861106999684123,-0.24,6.68,0.0,35,-0.23999991270016582
41,1.416295100003481,-0.24,6.68,0.0,35,-0.24000009412102047
42,1.447578000021167,-0.24,6.9,0.0,35,-0.23999990746162148
43,1.4793175000231713,-0.24,6.9,0.0,35,-0.24000007966363623
44,1.5104998999740928,-0.24,6.68,0.0,35,-0.23999994713976064
45,1.542366600013338,-0.24,6.9,0.0,35,-0.24000001014059405
46,1.576670799986459,-0.24,6.9,0.0,35,-0.2400000493666285
47,1.6070185999851674,-0.24,6.9,0.0,35,-0.2399998750923629
48,1.639176000026055,-0.24,6.68,0.0,35,-0.2400002135968257
49,1.6847324999980628,-0.24,7.0,0.0,35,-0.23999969002829155
50,1.730742699932307,-0.24,6.9,0.0,35,-0.24000040568352005
51,1.7758292999351395,-0.24,6.68,0.0,35,-0.23999951059109792
52,1.8077173000201583,-0.24,6.9,0.0,35,-0.24000054707368945
53,1.8387292999541387,-0.24,6.9,0.0,35,-0.23999943752302605
54,1.8836571000283584,-0.24,6.68,0.0,35,-0.24000051838947203
55,1.916170399985276,-0.24,7.0,0.0,35,-0.23999960182759433
56,1.9478265999350697,-0.24,6.9,0.0,35,-0.2400001879196945
57,1.9779437999241052,-0.24,6.9,0.0,35,-0.24000012093327097
58,2.010306500014849,-0.24,6.68,0.0,35,-0.23999947133420815
59,2.041042699944228,-0.24,7.11,0.0,35,-0.24000102421129937
60,2.071251799934544,-0.24,7.0,0.0,35,-0.23999841770824015
61,2.1036961999488994,-0.24,7.0,0.0,35,-0.24000216115004447
62,2.1340023999800906,-0.24,6.68,0.0,35,-0.23999729863864067
63,2.164495300035924,-0.24,6.9,0.0,35,-0.24000312625569656
64,2.1957202999619767,-0.24,7.0,0.0,35,-0.2399966555087904
65,2.2567556999856606,-0.24,7.0,0.0,35,-0.24000325526667945
66,2.287582700024359,-0.24,7.77,0.0,35,-0.23999724346585852
67,2.319625600008294,-0.24,7.0,0.0,35,-0.24000175635732177
68,2.351974599994719,-0.24,7.0,0.0,35,-0.2399998127494231
69,2.3826524999458343,-0.24,7.0,0.0,35,-0.23999802292749217
70,2.428039100021124,-0.24,6.79,0.0,35,-0.24000470359931703
71,2.459925999981351,-0.24,7.0,0.0,35,-0.23999211783098356
72,2.4909211000194773,-0.24,7.0,0.0,35,-0.240011310032238
73,2.5224054999416694,-0.24,7.0,0.0,35,-0.23998531851206079
74,2.554389199940488,-0.24,7.66,0.0,35,-0.24001758565322098
75,2.586398200015537,-0.24,7.22,0.0,35,-0.23998048440268552
76,2.6184204999590293,-0.24,7.0,0.0,35,-0.24001989193638093
77,2.6485243999632075,-0.24,7.0,0.0,35,-0.23998189655635965
78,2.6803609000053257,-0.24,7.66,0.0,35,-0.24001356619335745
79,2.711191299953498,-0.24,7.0,0.0,35,-0.23999419883302575
80,2.743085699970834,-0.24,7.11,0.0,35,-0.23999452808664562
81,2.773319200030528,-0.24,7.11,0.0,35,-0.24002022945310933
82,2.8050903999246657,-0.24,6.9,0.0,35,-0.239961964406665
83,2.836826200014912,-0.24,7.22,0.0,35,-0.24005794190921606
84,2.8678311000112444,-0.24,7.11,0.0,35,-0.2399215902400144
85,2.913651100010611,-0.24,7.11,0.0,35,-0.24009727254679822
86,2.9442505999468267,-0.24,6.9,0.0,35,-0.23988824318257768
87,2.975059899967164,-0.24,7.0,0.0,35,-0.24011858125922558
88,3.03659539995715,-0.24,7.11,0.0,35,-0.23988584944476832
89,3.067985499976203,-0.24,6.9,0.0,35,-0.24009485628740496
90,3.112926200032234,-0.24,7.11,0.0,35,-0.23994251088523424
91,3.145512199960649,-0.24,7.11,0.0,35,-0.23999975509367982
92,3.190917099942453,-0.24,7.11,0.0,36,-0.24007912568723302
93,3.222407800029032,-0.24,7.0,0.0,36,-0.2398222224645328
94,3.253186499932781,-0.24,7.11,0.0,36,-0.24029204344593322
95,3.285189799964428,-0.24,7.22,0.0,36,-0.23958554621037403
96,3.3170438000233844,-0.24,7.11,0.0,36,-0.2405338858196614
97,3.3501256000017747,-0.24,7.77,0.0,36,-0.23936447628395852
98,3.379356999997981,-0.24,7.22,0.0,36,-0.24070123440781738
99,3.4113082999829203,-0.24,7.22,0.0,36,-0.23928953131736033
100,3.4427309000166133,-0.24,7.0,0.0,36,-0.24064177670163406
101,3.47460840002168,-0.24,7.22,0.0,36,-0.2395250109750743
102,3.505683699971996,-0.24,7.22,0.0,36,-0.24019405663708596
103,3.537959499983117,-0.24,7.22,0.0,36,-0.24020953417413046
104,3.5694676999701187,-0.24,7.77,0.0,36,-0.23926704788998837
105,3.6017940000165254,-0.24,7.33,0.0,36,-0.24135810588713857
106,3.6327609999571,-0.24,7.22,0.0,36,-0.23795197113071453
107,3.666193699929863,-0.24,7.11,0.0,36,-0.24274407773471002
108,3.695132700027898,-0.24,7.33,0.0,36,-0.23663545175343795
109,3.7407865999266505,-0.24,7.33,0.0,36,-0.24380536047522444
110,3.7739753000205374,-0.24,7.22,0.0,36,-0.23605654507169274
111,3.817990200011991,-0.24,7.0,0.0,36,-0.24364344824361397
112,3.8630982999457046,-0.24,7.33,0.0,36,-0.23723209817735944
113,3.894664700026624,-0.24,7.22,0.0,36,-0.24119124228429506
114,3.9251642000162974,-0.24,7.11,0.0,36,-0.241183070872367
115,3.972798999981024,-0.24,7.77,0.0,36,-0.2355968931150495
116,4.03203320002649,-0.24,7.33,0.0,36,-0.2484484170363605
117,4.076535800006241,-0.24,7.22,0.0,36,-0.22678818888559818
118,4.108592799981125,-0.24,7.33,0.0,36,-0.2584861913642013
119,4.140684099984355,-0.24,7.33,0.0,36,-0.21603955269786504
120,4.171195999952033,-0.24,7.33,0.0,36,-0.2692290662714134
121,4.202285300008953,-0.24,7.11,0.0,36,-0.20617944533429786
122,4.235889600007795,-0.24,7.11,0.0,36,-0.27724989871753625
123,4.34136820002459,-0.24,7.33,0.0,36,-0.20089995945502004
124,4.371290799928829,0.52,7.22,0.0,36,0.48087534135349513
125,4.4026689999736845,0.53,7.44,0.0,32,0.5673275883852964
126,4.434669699985534,0.53,7.33,0.0,32,0.49603877659805584
127,4.465353499981575,0.53,7.33,0.0,32,0.5594447147491252
128,4.497401500004344,0.53,7.33,0.0,32,0.5057396839665121
129,4.528429299942218,0.53,7.33,0.0,32,0.5488719726190954
130,4.558117299922742,0.53,7.22,0.0,32,0.5163266920769218
131,4.5907176999608055,0.53,7.33,0.0,32,0.5389599527014832
132,4.621822400018573,0.53,7.0,0.0,32,0.5250789336385264
133,4.653659099945799,0.53,7.33,0.0,32,0.5316450203556677
134,4.684893199941143,0.53,7.22,0.0,32,0.5308653739596323
135,4.73171750002075,0.53,7.22,0.0,32,0.5273278962498753
136,4.762775299954228,0.53,7.22,0.0,32,0.5338789632271783
137,4.79479309997987,0.53,7.11,0.0,32,0.525391088796518
138,4.824769499944523,0.53,7.11,0.0,32,0.5349836774286079
139,4.856225399998948,0.53,7.11,0.0,32,0.5248930736647379
140,4.888402999960817,0.53,7.11,0.0,32,0.5350518047329941
141,4.91916189994663,0.53,7.11,0.0,32,0.5251466717218962
142,4.965099700028077,0.53,7.0,0.0,32,0.5345057852257605
143,4.995932599995285,0.53,7.0,0.0,32,0.5260348721853491
144,5.028526299982332,0.53,7.0,0.0,32,0.5331561468829877
145,5.059909499948844,0.53,7.0,0.0,32,0.5280159534340235
146,5.090975999948569,0.53,7.0,0.0,32,0.5303498180372652
147,5.1356116000097245,0.53,7.0,0.0,32,0.5318314739595454
148,5.16777059994638,0.53,7.0,0.0,32,0.5253892524468249
149,5.198970100027509,0.53,6.9,0.0,32,0.5379850148469676
150,5.22993339993991,0.53,6.9,0.0,31,0.5181202136854679
151,5.261973000015132,0.53,6.9,0.0,31,0.5461365708662406
152,5.293256300035864,0.53,6.9,0.0,31,0.5094911781123903
153,5.324306100024842,0.53,6.9,0.0,31,0.5546701433780821
154,5.355452199932188,0.53,6.79,0.0,31,0.5017611283307903
155,5.386281799990684,0.53,6.79,0.0,31,0.5608232074566926
156,5.417741999961436,0.53,6.79,0.0,31,0.49790917821281383
157,5.448834399925545,-0.16,6.79,0.0,31,-0.1281446347029794
158,5.480480100028217,-0.24,6.79,0.0,31,-0.2701399488552818
159,5.5113025000318885,-0.24,6.79,0.0,35,-0.21283066416359012
160,5.54183160001412,-0.24,6.79,0.0,35,-0.2632969387104992
161,5.587659399956465,-0.24,6.68,0.0,35,-0.22108049376183087
162,5.619663799996488,-0.24,6.68,0.0,35,-0.25441400741939024
163,5.650488600018434,-0.24,6.68,0.0,35,-0.22990107056032794
164,5.682256000000052,-0.24,6.68,0.0,35,-0.24621458238206803
165,5.712575200013816,-0.24,6.68,0.0,35,-0.2370819037205101
166,5.743998499936424,-0.24,6.68,0.0,35,-0.24028893201403137
167,5.774999400018714,-0.24,6.57,0.0,35,-0.24165889828851247
168,5.807650799979456,-0.24,6.57,0.0,35,-0.23703883062856274
169,5.8395509999245405,-0.24,6.57,0.0,35,-0.24368698219804658
170,5.869259699946269,-0.24,6.57,0.0,35,-0.23607650352404877
171,5.901569299981929,-0.24,6.57,0.0,35,-0.24376322154294883
172,5.932476499932818,-0.24,6.57,0.0,35,-0.2367053374400003
173,5.963098599924706,-0.24,6.57,0.0,35,-0.24259662929457462
174,5.99482010002248,-0.24,6.57,0.0,35,-0.23826388844944937
175,6.02689650002867,-0.24,6.57,0.0,35,-0.24076930716214354
176,6.057597000035457,-0.24,6.57,0.0,35,-0.24025485173394912
177,6.088268999941647,-0.24,6.46,0.0,35,-0.23871049969920594
178,6.119163100025617,-0.24,6.46,0.0,35,-0.24228390920346368
179,6.1496940000215545,-0.24,6.46,0.0,35,-0.236822182488731
180,6.184930899995379,-0.24,6.46,0.0,35,-0.24389703611978233
181,6.229274999932386,-0.24,6.35,0.0,35,-0.2356487201245722
182,6.260173299931921,-0.24,6.35,0.0,35,-0.2444350749151214
183,6.290535799926147,-0.24,6.35,0.0,35,-0.2359676003743735
184,6.322760000010021,-0.24,6.35,0.0,35,-0.24302543911414942
185,6.353198700002395,-0.24,6.35,0.0,35,-0.23869254840583012
186,6.384676599991508,-0.24,6.35,0.0,35,-0.23879925301650828
187,6.435376900015399,-0.24,6.35,0.0,35,-0.24453177517393082
188,6.5235152000095695,-0.24,6.24,0.0,35,-0.23134805271467015
189,6.554836199968122,-0.24,6.24,0.0,35,-0.25344335870783385
190,6.58604560000822,-0.24,6.24,0.0,35,-0.2213088681673316
191,6.617709300015122,-0.24,6.24,0.0,35,-0.26407989352446
192,6.647890300024301,-0.24,6.24,0.0,35,-0.21079583845115013
193,6.679001900018193,-0.24,6.13,0.0,35,-0.2735977049168265
194,6.708616400021128,-0.24,6.13,0.0,35,-0.20321297913361216
195,6.740666699944995,-0.24,6.13,0.0,36,-0.27837376251353707
196,6.8334576999768615,-1.06,6.02,0.0,36,-1.0218627319053581
197,6.864913300029002,-1.15,6.02,0.0,40,-1.1861097731478116
198,6.895342799951322,-1.15,6.02,0.0,40,-1.1174332851745092
199,6.925877599976957,-1.15,6.02,0.0,40,-1.1779390158521592
200,6.97207909997087,-1.15,6.02,0.0,40,-1.1272897841439682
201,7.003727999981493,-1.15,6.02,0.0,40,-1.1673398528626537
202,7.03564010001719,-1.15,6.02,0.0,40,-1.1377839669282055
203,7.067339399945922,-1.15,5.91,0.0,40,-1.1576308245757945
204,7.099498299998231,-1.15,6.02,0.0,40,-1.146226661378465
205,7.129752599983476,-1.15,5.91,0.0,40,-1.1507355416855156
206,7.161305599962361,-1.15,5.91,0.0,41,-1.1514736897981976
207,7.192591700004414,-1.15,5.91,0.0,41,-1.1470899029705657
208,7.22402800002601,-1.15,5.91,0.0,41,-1.1536742076952402
209,7.256015599938109,-1.15,5.81,0.0,41,-1.1461075833879768
210,7.302675199927762,-1.15,5.81,0.0,41,-1.153700501987658
211,7.333282899926417,-1.15,5.81,0.0,41,-1.1467695580423634
212,7.364465199992992,-1.15,5.81,0.0,41,-1.1526008522453748
213,7.395783899934031,-1.15,5.81,0.0,41,-1.1480890507554085
214,7.426714499946684,-1.15,5.81,0.0,41,-1.1512376523462695
215,7.456544899963774,-1.15,5.81,0.0,41,-1.1493647359493302
216,7.48800020001363,-1.15,5.7,0.0,41,-1.150137089061467
217,7.53351089998614,-1.15,5.7,0.0,41,-1.1502416464337122
218,7.5653293000068516,-1.15,5.7,0.0,41,-1.149499841883967
219,7.597118300036527,-1.15,5.7,0.0,41,-1.1506482406144989
220,7.62797359994147,-1.15,5.7,0.0,41,-1.1492974403680425
221,7.660241200006567,-1.15,5.7,0.0,41,-1.1506833670187122
222,7.690140199963935,-1.15,5.7,0.0,41,-1.1493881995883752
223,7.722008700016886,-1.15,5.59,0.0,41,-1.1505078371527873
224,7.752987699932419,-1.15,5.59,0.0,41,-1.1496111012736248
225,7.784592799958773,-1.15,5.59,0.0,41,-1.1502690482812885
226,7.816285799955949,-1.15,5.59,0.0,41,-1.1498413107481786
227,7.848753900034353,-1.15,5.59,0.0,41,-1.1500646555087741
228,7.880603599944152,-1.15,5.59,0.0,41,-1.1500094201468092
229,7.9110239000292495,-1.15,5.59,0.0,41,-1.1499374346020823
230,7.942233499954455,-1.15,5.59,0.0,41,-1.1500958478834558
231,7.974956799997017,-1.15,5.48,0.0,41,-1.1498882512858761
232,8.00703859992791,-1.15,5.48,0.0,41,-1.1501135844166104
233,8.038439800031483,-1.15,5.48,0.0,41,-1.1498949872970878
234,8.069393699988723,-1.15,5.48,0.0,42,-1.1500896405491958
235,8.100450600031763,-1.15,5.48,0.0,42,-1.1499292608636886
236,8.133155799936503,-1.15,5.48,0.0,42,-1.1500510596708098
237,8.164118399959989,-1.15,5.48,0.0,42,-1.1499672630005209
238,8.208217200008221,-1.15,5.48,0.0,42,-1.1500172639871653
239,8.24043140001595,-1.15,5.37,0.0,42,-1.1499944816119179
240,8.2701764999656,-1.15,5.37,0.0,42,-1.149997824834943
241,8.299800100037828,-1.15,5.37,0.0,42,-1.150005963009948
242,8.331512999953702,-1.15,5.37,0.0,42,-1.1499936282529297
243,8.361249599955045,-1.15,5.26,0.0,42,-1.1500042168421531
244,8.39231030002702,-1.15,5.26,0.0,42,-1.1499994852525104
245,8.423557100002654,-1.15,5.37,0.0,42,-1.1499963995562443
246,8.452886599930935,-1.15,5.26,0.0,42,-1.1500069572328968
247,8.498927299981005,-1.15,5.26,0.0,42,-1.1499915732630042
248,8.530236499966122,-1.15,5.26,0.0,42,-1.1500070057811083
249,8.562123899930157,-1.15,5.26,0.0,42,-1.1499980943866164
250,8.593018500017934,-1.15,5.26,0.0,42,-1.1499926469842725
251,8.626756499987096,-1.15,5.15,0.0,42,-1.1500208404253718
252,8.670152599923313,-1.15,5.15,0.0,42,-1.1499618802754734
253,8.701221699942835,-1.15,5.15,0.0,42,-1.150058159069397
254,8.733245700015686,-1.15,5.15,0.0,42,-1.1499207322629221
255,8.765310999937356,-1.15,5.15,0.0,42,-1.1500990726791498
256,8.797312299953774,-1.15,5.15,0.0,42,-1.1498854454839915
257,8.827623800025322,-1.15,5.15,0.0,42,-1.1501221625071487
258,8.8590450999327,-1.15,5.04,0.0,42,-1.1498819737591899
259,8.904368399991654,-1.15,5.04,0.0,42,-1.1500982770341666
260,8.93558559997473,-1.15,5.04,0.0,42,-1.1499405161412042
261,8.966311599942856,-1.15,5.04,0.0,43,-1.1499991967634702
262,9.011175199993886,-1.15,5.04,0.0,43,-1.150083424655703
263,9.042838199995458,-1.15,5.04,0.0,43,-1.1498130613309532
264,9.07498289993964,-1.15,5.04,0.0,43,-1.1503069661299783
265,9.106272300006822,-1.15,4.93,0.0,43,-1.1495643652473038
266,9.152040399960242,-1.15,4.93,0.0,43,-1.1505612241102507
267,9.18402539996896,-1.15,4.93,0.0,43,-1.1493318734123878
268,9.215659699984826,-1.15,4.93,0.0,43,-1.1507372453985358
269,9.246831299969926,-1.15,4.93,0.0,43,-1.1492530551985864
270,9.279240799951369,-1.15,4.93,0.0,43,-1.150674646229986
271,9.308768899994902,-1.15,4.93,0.0,43,-1.1495008759204217
272,9.338255199952982,-1.15,4.82,0.0,43,-1.1502034942744492
273,9.37021989992354,-1.15,4.82,0.0,43,-1.1502211929463102
274,9.40055639995262,-1.15,4.93,0.0,43,-1.1492280545276126
275,9.432166400016284,-1.15,4.93,0.0,43,-1.1514297117004846
276,9.462751899962312,-1.15,4.93,0.0,43,-1.147844421127092
277,9.495189599925652,-1.15,4.72,0.0,43,-1.1528878286600825
278,9.52544889994897,-1.15,4.93,0.0,43,-1.1464595154977446
279,9.55632620002143,-1.15,4.93,0.0,43,-1.1540040370314801
280,9.587973100016823,-1.15,6.02,0.0,43,-1.1458509776252765
281,9.634229499963112,-1.15,5.15,0.0,43,-1.1538330304314224
282,9.66528139996808,-1.15,5.37,0.0,43,-1.1470884853078305
283,9.69839629996568,-1.15,5.26,0.0,43,-1.1512524442182344
284,9.729339699959382,-1.15,5.7,0.0,43,-1.151245628226957
285,9.7597042999696,-1.15,6.35,0.0,43,-1.1453668904503491
286,9.804683199967258,-1.15,5.59,0.0,44,-1.1588882704002763
287,9.83565829996951,-1.15,5.7,0.0,44,-1.136101931980243
288,9.867418800015002,-1.15,5.81,0.0,44,-1.169444290222887
289,9.900012800004331,-1.15,7.0,0.0,44,-1.1248007686601222
290,9.930977599928156,-1.15,5.81,0.0,44,-1.1807357954809192
291,9.960040499921888,-1.15,5.91,0.0,44,-1.1144426157821474
292,10.006316200015137,-1.15,7.22,0.0,44,-1.1891530650866422
293,10.038384599960407,-1.15,6.13,0.0,44,-1.1089167511937377
294,10.06992319994606,-0.36,6.13,0.0,44,-0.4010879044458238
295,10.102492999983951,-0.36,6.24,0.0,40,-0.3208292521342738
296,10.133758299984038,-0.36,6.46,0.0,40,-0.39559881634719796
297,10.164643299998716,-0.36,6.35,0.0,40,-0.32918256315090993
298,10.241742599988356,-0.36,6.35,0.0,40,-0.38534119328840166
299,10.272951500024648,-0.36,6.35,0.0,40,-0.34033251429371164
300,10.309407399967313,-0.36,6.68,0.0,40,-0.3742206953343084
301,10.352037000004202,-0.36,6.79,0.0,40,-0.35067821090991963
302,10.384467300027609,-0.36,6.68,0.0,40,-0.36517794701775863
303,10.416238799924033,-0.36,7.44,0.0,40,-0.35811304911927594
304,10.446781100006774,-0.36,6.57,0.0,40,-0.3594515422307484
305,10.47622319997754,-0.36,7.66,0.0,40,-0.36220035986785065
306,10.50720170000568,-0.36,6.79,0.0,40,-0.35680709946635825
307,10.553550499957057,-0.36,7.11,0.0,40,-0.3636795010496752
308,10.583886199980045,-0.36,6.79,0.0,40,-0.3561782001541249
309,10.630127799930053,-0.36,7.11,0.0,40,-0.3637714375376322
310,10.661453699925914,-0.36,7.55,0.0,40,-0.35634470332362306
311,10.691847099922596,-0.36,7.11,0.0,40,-0.3635644520892271
312,10.72375549993012,-0.36,7.11,0.0,40,-0.35645312502322485
313,10.755778799997644,-0.36,7.11,0.0,40,-0.36360384105815463
314,10.78615980001632,-0.36,7.33,0.0,40,-0.3563100133497998
315,10.817584199947303,-0.36,7.11,0.0,40,-0.3637169958993396
316,10.86467929999344,-0.36,7.11,0.0,40,-0.35643905695500944
317,10.895659500034526,-0.36,7.11,0.0,40,-0.3630733112196257
318,10.927733100019395,-0.36,7.22,0.0,40,-0.35790437674308495
319,10.95876850001514,-0.36,7.33,0.0,40,-0.36047741707719133
320,10.989928900031371,-0.36,7.11,0.0,40,-0.3619030436974037
321,11.037941499962471,-0.36,7.44,0.0,40,-0.35488357822886163
322,11.08246299996972,-0.36,8.09,0.0,40,-0.3691600437751146
323,11.114123899955302,-0.36,7.44,0.0,40,-0.3460618221895086
324,11.144843799993396,-0.36,8.42,0.0,40,-0.3792480917349024
325,11.176460099988615,-0.36,7.55,0.0,40,-0.33522409760927846
326,11.208781900000758,-0.36,7.33,0.0,40,-0.3901068888468823
327,11.23914750001859,-0.36,7.44,0.0,40,-0.3252446014866034
328,11.271203399985096,-0.36,7.55,0.0,40,-0.39821962243686315
329,11.30260359996464,-0.36,8.42,0.0,40,-0.31993373180847473
330,11.333489899989218,0.42,7.66,0.0,40,0.37996285068206204
331,11.365100599941798,0.43,7.33,0.0,40,0.46813178760181834
332,11.396798499976285,0.43,7.44,0.0,40,0.3953932214237963
