,time,angle,pressure,set_point,motor_speed,Filtered_angle
0,1.0889103000517937,-0.81,4.28,0.0,26,-0.8077772448114169
1,2.170159599976614,-0.81,4.5,0.0,27,-0.7317511383353124
2,3.246244100038893,-0.81,4.82,0.0,28,-0.6565356979085666
3,4.365375500055961,-0.06,4.72,0.0,24,-0.5829569276616063
4,5.439706200035289,-0.06,4.28,0.0,24,-0.5117946835804849
5,6.516172799980268,-0.06,4.5,0.0,24,-0.44376013439434703
6,7.582723899977282,-0.06,5.15,0.0,25,-0.3794772822667884
7,8.650769900064915,-0.06,4.5,0.0,25,-0.3194701424432717
8,9.727911700028926,-0.06,4.72,0.0,25,-0.2641556235797262
9,10.799850100069309,-0.06,4.82,0.0,25,-0.21384131529054895
10,11.884323099977337,-0.06,4.82,0.0,25,-0.1687272750494527
11,12.956639099982567,-0.06,4.82,0.0,25,-0.12891097670857501
12,14.030764500028454,-0.06,4.82,0.0,25,-0.09439465772918892
13,15.098139100009575,-0.06,4.5,0.0,25,-0.06509438014211415
14,16.168862499995157,-0.06,4.82,0.0,25,-0.0408501997449645
15,17.25918310007546,-0.06,4.82,0.0,25,-0.021436917668057488
16,18.326873300014995,-0.06,4.82,0.0,25,-0.006574966903430711
17,19.4112367000198,-0.06,4.61,0.0,25,0.004058937457116245
18,20.480120800086297,-0.06,5.15,0.0,25,0.010821682679370085
19,21.5507008000277,-0.06,4.93,0.0,25,0.014094407225344491
20,22.624178900034167,-0.06,4.93,0.0,25,0.014274079742538252
21,23.696865800069645,-0.06,4.93,0.0,25,0.011766115378071436
22,24.766711700009186,-0.06,4.82,0.0,25,0.0069780836976740925
23,25.83193129999563,-0.06,4.82,0.0,26,0.0003145155484280671
24,26.90612810000312,-0.06,4.82,0.0,26,-0.007827224642923647
25,27.974361400003545,-0.06,4.72,0.0,26,-0.01706006935220019
26,29.047936500050128,-0.06,4.72,0.0,26,-0.02700947803954243
27,30.1205793999834,-0.06,4.72,0.0,26,-0.03731488624530208
28,31.21350920002442,-0.06,4.61,0.0,26,-0.04763050984932318
29,32.29224710003473,-0.06,4.82,0.0,26,-0.05762565169828395
30,33.36402310000267,-0.06,4.82,0.0,26,-0.06698466338713889
31,34.43336630007252,-0.06,4.82,0.0,26,-0.07540671530716514
32,35.502827499993145,-0.06,4.93,0.0,26,-0.08260552337019011
33,36.590397100080736,-0.06,4.93,0.0,26,-0.08830917131292806
34,37.72691920003854,-0.06,4.72,0.0,26,-0.09226015340182969
35,38.79840279999189,-0.06,4.72,0.0,26,-0.09421574391971804
36,39.86542320006993,-0.06,4.72,0.0,26,-0.09394877724171682
37,40.93188450008165,-0.06,4.72,0.0,26,-0.09124889582240207
38,42.00302330008708,-0.06,4.93,0.0,26,-0.08592429324811011
39,43.07920630008448,-0.06,4.93,0.0,26,-0.07780394589981367
40,44.16223550005816,-0.06,5.15,0.0,27,-0.06674028998410651
41,45.228793399990536,-0.06,5.26,0.0,27,-0.05261226101021973
42,46.30138880002778,-0.06,5.15,0.0,27,-0.03532857054066919
43,47.37421030004043,-0.06,4.93,0.0,27,-0.01483105058290649
44,48.445883300038986,-0.06,4.93,0.0,27,0.008902150275193504
45,49.51728720008396,-0.06,5.04,0.0,27,0.03585378249853866
46,50.61217219999526,-0.06,4.93,0.0,27,0.06596543498355235
47,51.70600520004518,-0.06,5.37,0.0,27,0.09913655892502618
48,52.79152600001544,-0.06,5.26,0.0,27,0.13522498539463138
49,53.86101090000011,-0.06,5.15,1.0,27,0.17404939343726342
50,54.93469100003131,-0.06,6.13,1.0,33,0.21539423155204565
51,56.01064910006244,0.81,6.02,1.0,29,0.2590174326130027
52,57.07781550008804,0.81,5.26,1.0,30,0.3046602698125721
53,58.146509399986826,0.06,4.39,1.0,34,0.3520570568117213
54,59.21482230001129,0.06,5.48,1.0,35,0.40094228716111124
55,60.30112960003317,0.06,6.46,1.0,36,0.4510554764023261
56,61.39801020000596,0.89,6.68,1.0,32,0.5021465514730595
57,62.47099150007125,0.89,6.57,1.0,32,0.55398381114214
58,63.55998999997973,0.89,6.57,1.0,32,0.6063633276138854
59,64.64148870005738,0.89,6.68,1.0,32,0.6591167972338945
60,65.71970880008303,0.89,6.57,1.0,33,0.712115667838028
61,66.79284700006247,0.89,6.57,1.0,33,0.765271154040337
62,67.87517280003522,0.89,6.9,1.0,33,0.8185307440576296
63,68.95934629999101,0.89,6.9,1.0,33,0.8718720030787318
64,70.03150789998472,0.89,6.9,1.0,33,0.925294480974411
65,71.12157910002861,0.89,7.55,1.0,33,0.9788105340648554
66,72.18812860001344,0.89,6.9,1.0,33,1.0324358721513285
67,73.25617790000979,0.89,6.9,1.0,33,1.086180643399123
68,74.32531190000009,0.89,6.9,1.0,33,1.1400418711218547
69,75.4138439000817,0.89,7.0,1.0,34,1.1939980581196123
70,76.48710740008391,0.89,7.11,2.0,39,1.2480067758963473
71,77.55403490003664,0.89,7.99,2.0,40,1.3020060576502666
72,78.62031680007931,1.72,7.77,2.0,36,1.3559202179126773
73,79.6904896000633,1.72,7.77,2.0,37,1.4096697361264077
74,80.7593654000666,1.72,8.09,2.0,37,1.4631830660551342
75,81.83851110003889,1.72,7.99,2.0,37,1.5164072454091335
76,82.91711709997617,1.72,7.88,2.0,37,1.5693151638295575
77,84.00221359997522,1.72,8.31,2.0,38,1.6219091190951096
78,85.07216790004168,1.72,8.09,2.0,38,1.6742212734747657
79,86.14224630000535,1.72,8.09,2.0,38,1.7263118149015317
80,87.21160640008748,1.72,8.31,2.0,39,1.7782656232014418
81,88.28029390005395,1.72,8.42,2.0,39,1.8301882376416556
82,89.35298880003393,1.72,8.09,2.0,39,1.8822019189707728
83,90.41984170000067,1.72,8.2,2.0,39,1.934442597280897
84,91.51452089997474,1.72,8.31,2.0,40,1.9870584967398388
85,92.60158770007548,1.72,8.64,3.0,40,2.04021122978752
86,93.67377210000996,2.51,9.29,3.0,46,2.0940799692608825
87,94.742266700021,2.51,9.4,3.0,43,2.148868374133025
88,95.81336350005586,2.51,9.29,3.0,43,2.2048122633609974
89,96.88992420001888,2.51,10.49,3.0,44,2.2621851048608845
90,97.9763136000838,2.51,9.73,3.0,44,2.3212993396226613
91,99.05124529998284,2.51,9.95,3.0,45,2.382503268531868
92,100.12231110001449,2.51,9.95,3.0,45,2.446174190275764
93,101.18633430008776,3.3,10.06,3.0,42,2.512708505593858
94,102.2554356000619,2.5,10.17,3.0,46,2.582508786694879
95,103.32538499997464,2.5,10.27,3.0,46,2.655967109354966
96,104.40274230006617,2.5,10.38,3.0,47,2.733444761123506
97,105.48440279997884,3.4,10.06,3.0,42,2.815250163909229
98,106.55871890007984,2.64,9.51,3.0,46,2.9016167547878333
99,107.62954600004014,2.64,9.08,4.0,51,2.992680835275107
100,108.70025610004086,2.64,8.64,4.0,53,3.0884592575326413
101,109.77184780000243,1.83,8.09,4.0,54,3.1888288589557074
102,110.85784349997994,1.83,7.55,4.0,60,3.293511610904518
103,111.93595429998824,2.62,9.18,4.0,58,3.4020705060064915
104,113.0187344000442,3.4,12.67,4.0,56,3.513920425823292
105,114.08817690005526,4.17,12.78,4.0,52,3.6283543521864474
106,115.15829669998492,4.17,11.69,4.0,52,3.7445800887652525
107,116.23641200002749,4.17,11.58,4.0,51,3.861760110803323
108,117.31203859997912,4.17,11.8,4.0,51,3.97904870825975
109,118.39757140004076,4.17,11.8,4.0,51,4.095624136023668
110,119.47121059999336,4.17,11.91,5.0,56,4.21071626056101
111,120.5429569000844,4.96,12.35,5.0,53,4.323631106771103
112,121.62540800007991,4.96,12.24,5.0,53,4.433772942894467
113,122.69939399999566,4.96,12.24,5.0,53,4.540662830052262
114,123.77145200001542,4.96,12.02,5.0,53,4.643951592348715
115,124.83990710007492,4.96,12.35,5.0,53,4.743426061257543
116,125.9089260000037,4.96,12.02,5.0,53,4.839009089581061
117,126.9755105000222,4.96,12.35,5.0,53,4.930754715683312
118,128.07546469999943,4.96,12.02,5.0,53,5.018839989956061
119,129.1656785000814,4.96,12.35,5.0,53,5.103554917780514
120,130.23899910005275,4.96,12.35,5.0,53,5.185291916284454
121,131.30753290001303,4.96,12.35,6.0,58,5.26453612781321
122,132.38023940008134,4.96,13.11,6.0,59,5.341857882945706
123,133.4568289000308,5.77,13.11,6.0,55,5.4179083691789796
124,134.5241977000842,5.77,13.54,6.0,56,5.493418562064167
125,135.60016300005373,6.91,13.11,6.0,56,5.569199444032781
126,136.67326349997893,6.91,12.78,6.0,49,5.6461392008193805
127,137.75608670001384,6.12,12.35,6.0,52,5.725191790107987
128,138.8458312000148,6.12,12.02,6.0,52,5.8073525984839005
129,139.91644780000206,6.12,11.58,6.0,52,5.893620927586978
130,141.0032271000091,6.12,11.26,6.0,52,5.984952652163694
131,142.072385400068,5.32,10.82,7.0,56,6.082207045964853
132,143.14307009999175,5.32,10.38,7.0,63,6.186091365257748
133,144.21654880000278,5.32,9.95,7.0,64,6.297107627923859
134,145.28716489998624,4.54,9.62,7.0,70,6.4155070626119635
135,146.35912000003736,4.54,9.18,7.0,73,6.541257777165094
136,147.48013290006202,4.54,9.4,7.0,75,6.674031258408929
137,148.54844969999976,6.2,12.46,7.0,69,6.813213006267724
138,149.62337639997713,7.01,13.76,7.0,65,6.957939431962363
139,150.69121309998445,7.82,13.98,7.0,60,7.107156880371837
140,151.76090750005096,7.82,15.4,8.0,59,7.259693137462765
141,152.83559250005055,8.6,14.53,8.0,60,7.414330772777755
142,153.91154990007635,8.6,14.53,8.0,59,7.569874357385609
143,154.98890150000807,8.6,14.42,8.0,59,7.725206646553545
144,156.0571977000218,8.6,14.2,8.0,58,7.87933101103145
145,157.14802439999767,8.6,14.2,8.0,58,8.031399497125529
146,158.2200142000802,8.6,13.98,8.0,57,8.18072775451905
147,159.29027380002665,8.6,13.87,8.0,56,8.326798980850544
148,160.36664710007608,8.53,13.76,9.0,61,8.46925920461512
149,161.4428796999855,8.53,14.63,9.0,62,8.607906271337628
150,162.51210769999307,8.53,16.16,9.0,63,8.742674999979425
151,163.5988417000044,9.41,14.74,9.0,58,8.87362079739862
152,164.676105700084,9.41,14.53,9.0,58,9.000902833497145
153,165.7486077999929,8.65,15.62,9.0,62,9.124765970925061
154,166.83338790002745,8.65,14.63,9.0,62,9.24552036050123
155,167.91442490008194,9.49,14.63,9.0,57,9.363520013499128
156,168.98591589997525,8.74,14.63,10.0,61,9.479143575909298
157,170.05858070007525,9.52,15.29,10.0,63,9.592779534865358
158,171.12633560004178,9.52,15.18,10.0,64,9.704816308728585
159,172.19748590001836,10.37,15.4,10.0,60,9.815636752324384
160,173.27134990005288,10.37,15.07,10.0,59,9.925615366683962
161,174.34703489998356,9.61,15.18,10.0,63,10.035115161786107
162,175.42004340002313,9.61,15.29,10.0,64,10.144481971932477
163,176.4886858999962,9.61,16.49,10.0,64,10.254037394328906
164,177.5570582000073,10.39,15.4,11.0,60,10.364074234850268
165,178.63425640005153,10.39,15.72,11.0,66,10.47485752284404
166,179.7066154000349,11.17,15.94,11.0,62,10.586630882437754
167,180.77515500003935,11.17,15.83,11.0,62,10.69962529830389
168,181.84380740008783,11.17,15.72,11.0,62,10.814066402938328
169,182.9149807000067,10.39,15.83,11.0,66,10.9301773541826
170,183.9888591000345,11.21,16.05,11.0,62,11.048176975653544
171,185.07271860004403,11.21,15.83,11.0,62,11.16827540211976
172,186.14397309999916,11.21,15.72,12.0,62,11.290669597008845
173,187.2157360999845,11.21,16.71,12.0,68,11.415539422150385
174,188.28391870006453,12.04,16.16,12.0,64,11.543044080510326
175,189.36600969999563,12.04,15.72,12.0,64,11.673318628180015
176,190.43478320003487,11.28,16.05,12.0,68,11.806469483725595
177,191.52691310003863,11.28,16.71,12.0,68,11.942568014483939
178,192.6082824000623,12.12,16.49,12.0,64,12.081643733150196
179,193.6808031999972,12.12,16.16,13.0,64,12.223680361403861
180,194.75187080004247,12.12,16.49,13.0,70,12.368616348353546
181,195.8448876000475,12.87,17.58,13.0,66,12.516348871902235
182,196.91905320005023,12.87,16.71,13.0,67,12.666739599591809
183,198.00045729998965,12.87,16.81,13.0,67,12.819620540996246
184,199.0769954000134,12.87,16.71,13.0,67,12.974798472793534
185,200.1427285000682,12.87,16.81,13.0,67,13.132057548462281
186,201.2142782000592,12.87,16.49,14.0,72,13.29116134614453
187,202.28520120005123,13.72,17.47,14.0,69,13.451856332023352
188,203.38183000008576,13.72,17.25,14.0,69,13.613877916271862
189,204.4656238000607,13.72,17.36,14.0,69,13.776958488612795
190,205.55050070001744,14.5,17.47,14.0,66,13.940835649317505
191,206.62327370001003,14.5,17.25,14.0,65,14.105258954786215
192,207.69610689999536,13.73,17.25,14.0,69,14.26999384569688
193,208.77459200005976,13.73,17.36,15.0,69,14.434822436007858
194,209.8446902000578,14.49,17.69,15.0,71,14.599543444519869
195,210.92026300006543,15.28,17.9,15.0,68,14.76397504795828
196,211.99397940002385,15.28,17.69,15.0,67,14.92796188399152
197,213.07777279999573,15.28,17.9,15.0,67,15.091383377196166
198,214.1509603000013,15.28,17.69,15.0,67,15.254159606355325
199,215.2247707999777,15.29,17.58,16.0,72,15.41625330379925
200,216.2988186000148,16.12,18.34,16.0,69,15.577668952801304
201,217.38640920002945,16.12,18.01,16.0,69,15.738450051394171
202,218.4608873000834,16.12,18.01,16.0,69,15.898674001798344
203,219.5358716000337,15.33,18.12,16.0,73,16.058443288218943
204,220.61540160002187,16.1,18.12,16.0,69,16.2178733597224
205,221.68575240008067,16.1,18.01,17.0,69,16.377080188381306
206,222.76737460005097,16.1,18.67,17.0,75,16.53617074651375
207,223.83664480003063,16.9,18.45,17.0,71,16.69523779529788
208,224.92773200001105,16.9,18.45,17.0,71,16.85435864834813
209,226.00352889997885,16.9,18.45,17.0,71,17.013596569113297
210,227.0800198999932,16.9,18.34,17.0,71,17.17300323705641
211,228.1543811000884,16.9,18.34,18.0,77,17.332621851742005
212,229.22575049998704,17.7,18.45,18.0,73,17.49249196645191
213,230.2957239000825,18.47,18.89,18.0,70,17.652656962448393
214,231.37467910000123,18.47,18.67,18.0,69,17.813172642464355
215,232.46849990007468,17.7,18.45,18.0,73,17.974113011530573
216,233.55456790002063,18.47,19.54,18.0,69,18.135570085419676
217,234.63239150005396,17.7,18.67,18.0,73,18.297648113228135
218,235.70468830002935,17.7,20.08,19.0,73,18.4604553875608
219,236.78291140007784,19.44,19.21,19.0,70,18.624097332306068
220,237.8600995000452,18.56,18.99,19.0,74,18.788673075154012
221,238.93312360008716,18.56,19.32,19.0,74,18.954274864364173
222,240.00411880004685,19.34,19.1,19.0,70,19.120988416330764
223,241.09433430002537,19.34,18.89,20.0,75,19.28889374892682
224,242.1992149000289,19.24,19.98,20.0,77,19.45806691948687
225,243.273904300062,20.05,19.21,20.0,73,19.628582288055387
226,244.36437480000316,20.05,20.52,20.0,73,19.800514490732684
227,245.43820750003212,20.05,19.54,20.0,73,19.97393917275062
228,246.5254310000455,20.05,19.54,20.0,72,20.14893139686207
229,247.5950207000133,20.05,19.21,21.0,72,20.325561598074867
230,248.6603483000072,20.05,19.21,21.0,78,20.50389059196697
231,249.7361799000064,20.88,19.76,21.0,75,20.68396590901631
232,250.81392680003773,21.7,19.65,21.0,70,20.86582076363428
233,251.88756559998728,20.95,19.54,21.0,74,21.049474421105348
234,252.96643789997324,20.95,20.74,21.0,74,21.23493090325733
235,254.0513728000224,20.95,19.65,22.0,74,21.422174616484945
236,255.1257014999865,21.75,19.87,22.0,76,21.611164963341096
237,256.1923764999956,22.5,19.98,22.0,72,21.801832746126813
238,257.26835370005574,21.73,19.76,22.0,76,21.994078346227234
239,258.33997770003043,22.5,19.87,22.0,72,22.187769170283687
240,259.4063331000507,21.68,19.65,23.0,80,22.382734687403048
241,260.4820937999757,22.44,19.87,23.0,78,22.578760069073947
242,261.55596939998213,23.27,20.08,23.0,73,22.775580843268166
243,262.6245666000759,22.47,19.87,23.0,77,22.97287989522927
244,263.7005528000882,23.33,20.19,23.0,74,23.17028616690064
245,264.7752946000546,23.33,19.98,23.0,73,23.36737400259004
246,265.8645888000028,22.46,20.08,24.0,78,23.563663233385803
247,266.95055080007296,24.05,20.41,24.0,75,23.758621260623066
248,268.0209203000413,24.05,20.3,24.0,75,23.951668842364004
249,269.1370587000856,24.05,20.08,24.0,75,24.142189993286305
250,270.2076758000767,24.05,20.19,24.0,76,24.329544296446233
251,271.2969218000071,24.05,20.3,25.0,76,24.513080128794922
252,272.3699473000597,24.84,20.63,25.0,78,24.692149442713202
253,273.43676479998976,24.84,20.52,25.0,78,24.866125441332375
254,274.5098304999992,25.59,20.52,25.0,74,25.034422937431426
255,275.58300290000625,24.81,20.41,25.0,78,25.19651947360856
256,276.6690186000196,24.81,20.3,26.0,83,25.35197546583561
257,277.74315870006103,25.6,22.16,26.0,80,25.50045382574672
258,278.8193876000587,26.36,20.63,26.0,75,25.641741060934198
259,279.8907283000881,25.57,20.41,26.0,79,25.775770212849856
260,280.96427160000894,25.57,20.52,26.0,80,25.902643484746008
261,282.03630490007345,26.32,20.74,27.0,76,26.02265310283881
262,283.1107142000692,26.32,20.74,27.0,81,26.136301300155893
263,284.2046656999737,27.27,20.85,27.0,76,26.244320001501695
264,285.28704089997336,26.39,22.16,27.0,81,26.34768827639416
265,286.3586165000452,27.23,20.74,27.0,77,26.447644479982447
266,287.4415128000546,26.26,20.52,27.0,82,26.54569132117259
267,288.516172499978,27.13,20.85,28.0,83,26.643594244130124
268,289.5916059000883,27.96,21.17,28.0,79,26.74337447036885
269,290.6671928000869,27.96,20.96,28.0,79,26.847296573022653
270,291.7448137999745,27.96,20.74,28.0,79,26.957847470951805
271,292.8215531000169,28.04,20.85,28.0,79,27.077702504563817
272,293.8919973000884,28.04,21.07,29.0,79,27.209676119594462
273,294.96010690007824,29.66,21.5,29.0,77,27.356656810262184
274,296.03501410002355,29.66,21.17,29.0,76,27.52152528929295
275,297.11206329998095,28.91,20.96,29.0,80,27.7070520432504
276,298.17984860006254,28.15,20.85,30.0,89,27.915769977689084
277,299.2539860000834,27.37,20.74,30.0,95,28.149822839609254
278,300.3204365000129,27.37,20.52,30.0,97,28.410797343067202
279,301.41347510006744,26.46,20.41,30.0,105,28.69955109313516
280,302.48963189998176,25.68,20.19,30.0,112,29.01604885363354
281,303.61363640008494,25.68,20.08,31.0,122,29.359219534885323
282,304.7042665000772,24.87,19.87,31.0,132,29.726846882578677
283,305.7872115999926,24.1,19.76,31.0,142,30.115507142608315
284,306.8612445000326,24.1,19.54,31.0,149,30.52056695838841
285,307.95178260002285,23.33,19.43,31.0,161,30.936255158250216
286,309.02725669997744,22.53,19.21,32.0,173,31.355822311281646
287,310.0990567000117,27.61,22.05,32.0,160,31.771800724223237
288,311.17551179998554,35.95,22.7,32.0,118,32.17636970173333
289,312.2485104000661,40.12,22.48,32.0,91,32.56180810699577
290,313.319031400024,41.9,22.59,32.0,73,32.92098417086309
291,314.38859029999,41.12,22.48,33.0,67,33.247814978310586
292,315.4542186000617,40.34,22.37,33.0,68,33.53763976757957
293,316.5275979000144,39.57,22.26,33.0,61,33.78748008972781
294,317.60065839998424,38.79,22.16,33.0,58,33.996185245144275
295,318.67130150005687,38.79,22.05,33.0,56,34.16447418654299
296,319.7923502000049,38.03,21.94,34.0,60,34.294887764971236
297,320.8639819000382,37.28,21.83,34.0,61,34.391663511985925
298,321.9387046999764,36.48,21.61,34.0,62,34.46054357800019
299,323.0165918000275,35.7,21.5,34.0,63,34.50852676442495
300,324.0854222000344,35.7,21.39,35.0,67,34.54357660874601
301,325.16144509997685,34.78,21.28,35.0,71,34.57429720708597
302,326.2305357999867,33.99,21.17,35.0,76,34.60958690195856
303,327.3021416000556,33.19,21.07,35.0,82,34.65827916037959
304,328.37823480006773,32.39,20.96,35.0,84,34.72878103135315
305,329.4563997000223,32.39,20.74,36.0,90,34.82872103064118
306,330.5375289000804,31.51,20.63,36.0,104,34.96461827872205
307,331.61400870000944,30.74,20.52,36.0,113,35.14158348660095
308,332.6832477999851,29.87,20.41,36.0,123,35.36306200420189
309,333.75981229997706,29.87,20.3,37.0,134,35.630630553842806
310,334.8293384000426,29.12,20.08,37.0,145,35.94386064458399
311,335.9080939000705,28.32,19.98,37.0,157,36.30026144698519
312,336.97834450006485,27.56,19.87,37.0,170,36.695314595193075
313,338.0568065000698,26.79,19.76,37.0,180,37.12261475785192
314,339.1271518000867,30.96,21.72,38.0,172,37.57413084515724
315,340.2064638000448,40.2,23.03,38.0,137,38.040595924194506
316,341.28898499999195,45.91,23.35,38.0,99,38.51201054295549
317,342.3611965000164,47.64,23.25,38.0,81,38.97820893729216
318,343.4333299000282,47.64,23.03,39.0,76,39.42941478294474
319,344.50651670002844,46.86,22.92,39.0,72,39.85672173060337
320,345.5843762999866,46.86,22.81,39.0,64,40.25246407563506
321,346.6591702000005,45.33,22.7,39.0,62,40.61047096441227
322,347.7434935000492,45.33,22.59,39.0,59,40.926212614229726
323,348.8215401000343,44.5,22.48,40.0,58,41.1968525155493
324,349.8959969000425,43.67,22.37,40.0,63,41.421220774084595
325,350.9678610999836,42.87,22.37,40.0,63,41.59972333327718
326,352.04040519997943,42.06,22.16,40.0,60,41.73420159736409
327,353.1116723000305,42.06,22.05,41.0,67,41.827757144824545
328,354.1860840000445,41.29,22.05,41.0,71,41.884555281702674
329,355.2598834000528,40.51,21.83,41.0,75,41.90961887990864
330,356.33412480005063,39.68,21.72,41.0,80,41.90862224935682
331,357.4067050000885,38.92,21.61,41.0,86,41.88769511329121
332,358.4764313000487,38.92,21.61,42.0,88,41.853247818453966
333,359.5533745000139,39.73,22.05,42.0,92,41.81182817372944
