,time,angle,pressure,set_point,motor_speed,Filtered_angle
0,0.0623003999935463,0.96,0.25,0.0,10,0.9599999999998805
1,0.1091868999646976,0.96,0.25,0.0,10,0.9599999999998805
2,0.1574028999893926,0.96,0.25,0.0,10,0.9599999999998805
3,0.2051087999716401,0.96,0.25,0.0,10,0.9599999999998805
4,0.2502498999820091,0.96,0.25,0.0,10,0.9599999999998805
5,0.3111473000026308,0.96,0.25,0.0,10,0.9599999999998805
6,0.3581570999813266,0.96,0.25,0.0,10,0.9599999999998805
7,0.4052373999729752,0.96,0.25,0.0,10,0.9599999999998805
8,0.4521304999943822,0.96,0.25,0.0,10,0.9599999999998805
9,0.5004266999894753,0.96,0.25,0.0,10,0.9599999999998805
10,0.5452160999993794,0.96,0.25,0.0,9,0.9599999999998805
11,0.5934881999855861,0.96,0.25,0.0,9,0.9599999999998805
12,0.654495999973733,0.96,0.25,0.0,9,0.9599999999998805
13,0.7014463999657892,0.96,0.25,0.0,9,0.9599999999998805
14,0.7635701999533921,0.96,0.25,0.0,9,0.9599999999998805
15,0.8112759999930859,0.96,0.25,0.0,9,0.9599999999998805
16,0.8580595999956131,0.96,0.25,0.0,9,0.9599999999998805
17,0.9053268999559804,0.96,0.25,0.0,9,0.9599999999998805
18,0.9522703999537044,0.96,0.25,0.0,9,0.9599999999998805
19,1.0135631999582984,0.96,0.25,0.0,9,0.9599999999998805
20,1.0751915999571793,0.96,0.25,0.0,9,0.9599999999998805
21,1.1223206999711692,0.96,0.25,0.0,9,0.9599999999998805
22,1.169657599995844,0.96,0.25,0.0,9,0.9599999999998805
23,1.2293824999942444,0.96,0.25,0.0,9,0.9599999999998805
24,1.2914917999878526,0.96,0.25,0.0,9,0.9599999999998805
25,1.3396508999867365,0.96,0.25,0.0,9,0.9599999999998805
26,1.3858268999611028,0.96,0.25,0.0,9,0.9599999999998805
27,1.4336981999804266,0.96,0.25,0.0,9,0.9599999999998805
28,1.4793276999844238,0.96,0.25,0.0,9,0.9599999999998805
29,1.5264112000004388,0.96,0.25,0.0,9,0.9599999999998805
30,1.5745881999609992,0.96,0.25,0.0,8,0.9599999999998805
31,1.6193826999515295,0.96,0.25,0.0,8,0.9599999999998805
32,1.6673450999660415,0.96,0.25,0.0,8,0.9599999999998805
33,1.7132278999779371,0.96,0.25,0.0,8,0.9599999999998805
34,1.7607373999780975,0.96,0.25,0.0,8,0.9599999999998805
35,1.8073877999559045,0.96,0.25,0.0,8,0.9599999999998805
36,1.8533960999920964,0.96,0.25,0.0,8,0.9599999999998805
37,1.9016659999615515,0.96,0.25,0.0,8,0.9599999999998805
38,1.9472115999669768,0.96,0.25,0.0,8,0.9599999999998805
39,1.9954819999984463,0.96,0.25,0.0,8,0.9599999999998805
40,2.0576050999807194,0.96,0.25,0.0,8,0.9599999999998805
41,2.1051758999819867,0.96,0.25,0.0,8,0.9599999999998805
42,2.152389299997594,0.96,0.25,0.0,8,0.9599999999998805
43,2.1994245999958366,0.96,0.25,0.0,8,0.9599999999998805
44,2.2452147000003606,0.96,0.25,0.0,8,0.9599999999998805
45,2.292526199948042,0.96,0.36,0.0,8,0.9599999999998805
46,2.340383299975656,0.96,0.25,0.0,8,0.9599999999998805
47,2.4031543000019155,0.96,0.25,0.0,8,0.9599999999998805
48,2.4528114999993704,0.96,0.25,0.0,8,0.9599999999998805
49,2.4974815999739803,0.96,0.25,0.0,8,0.9599999999998805
50,2.543523999978788,0.96,0.25,0.0,8,0.9599999999998805
51,2.5895904999924824,0.96,0.25,0.0,8,0.9599999999998805
52,2.634774899983313,0.96,0.25,0.0,7,0.9599999999998805
53,2.680574099998921,0.96,0.25,0.0,7,0.9599999999998805
54,2.72787259996403,0.96,0.25,0.0,7,0.9599999999998805
55,2.7755035999580286,0.96,0.25,0.0,7,0.9599999999998805
56,2.8223707999568437,0.96,0.25,0.0,7,0.9599999999998805
57,2.868849099962972,0.96,0.25,0.0,7,0.9599999999998805
58,2.9160705999820493,0.96,0.25,0.0,7,0.9599999999998805
59,2.963386599963997,0.96,0.25,0.0,7,0.9599999999998805
60,3.0235567999770865,0.96,0.25,0.0,7,0.9599999999998805
61,3.071470499970019,0.96,0.25,0.0,7,0.9599999999998805
62,3.1176684999954887,0.96,0.25,0.0,7,0.9599999999998805
63,3.1635897999512963,0.96,0.25,0.0,7,0.9599999999998805
64,3.209764799976256,0.96,0.25,0.0,7,0.9599999999998805
65,3.257684399955906,0.96,0.36,0.0,7,0.9599999999998805
66,3.3207483000005595,0.96,0.25,0.0,7,0.9599999999998805
67,3.3648341999505647,0.96,0.25,0.0,7,0.9599999999998805
68,3.425547999970149,0.96,0.25,0.0,7,0.9599999999998805
69,3.470401300000958,0.96,0.25,0.0,7,0.9599999999998805
70,3.5182115999632515,0.96,0.25,0.0,7,0.9599999999998805
71,3.5636799999629147,0.96,0.25,0.0,7,0.9599999999998805
72,3.608550299948547,0.96,0.25,0.0,7,0.9599999999998805
73,3.672451999969781,0.96,0.25,0.0,7,0.9599999999998805
74,3.7204919999931008,0.96,0.25,0.0,7,0.9599999999998805
75,3.76922099996591,0.96,0.25,0.0,7,0.9599999999998805
76,3.828231699997559,0.96,0.36,0.0,6,0.9599999999998805
77,3.876316899957601,0.96,0.25,0.0,6,0.9599999999998805
78,3.923701499996241,0.96,0.25,0.0,6,0.9599999999998805
79,3.984827399952337,0.96,0.25,0.0,6,0.9599999999998805
80,4.030805299989879,0.96,0.25,0.0,6,0.9599999999998805
81,4.076277699961793,0.96,0.25,0.0,6,0.9599999999998805
82,4.124550199951045,0.96,0.25,0.0,6,0.9599999999998805
83,4.1712174999993294,0.96,0.25,0.0,6,0.9599999999998805
84,4.234491499955766,0.96,0.25,0.0,6,0.9599999999998805
85,4.29448839998804,0.96,0.25,0.0,6,0.9599999999998805
86,4.34258159995079,0.96,0.25,0.0,6,0.9599999999998805
87,4.404544199991506,0.96,0.25,0.0,6,0.9599999999998805
88,4.452376899949741,0.96,0.25,0.0,6,0.9599999999998805
89,4.499603499949444,0.96,0.25,0.0,6,0.9599999999998805
90,4.545437599997968,0.96,0.25,0.0,6,0.9599999999998805
91,4.593265299976338,0.96,0.25,0.0,6,0.9599999999998805
92,4.640233199985232,0.96,0.25,0.0,6,0.9599999999998805
93,4.689321499958169,0.96,0.25,0.0,6,0.9599999999998805
94,4.748923799954355,0.96,0.25,0.0,6,0.9599999999998805
95,4.810392899962608,0.96,0.25,0.0,6,0.9599999999998805
96,4.857980199973099,0.96,0.25,0.0,5,0.9599999999998805
97,4.906110199983232,0.96,0.25,0.0,5,0.9599999999998805
98,4.967960999987554,0.96,0.25,0.0,5,0.9599999999998805
99,5.015538999985438,0.96,0.25,0.0,5,0.9599999999998805
100,5.060712899954524,0.96,0.25,0.0,5,0.9599999999998805
101,5.10730119998334,0.96,0.25,0.0,5,0.9599999999998805
102,5.1698830999666825,0.96,0.25,0.0,5,0.9599999999998805
103,5.230975299957208,0.96,0.25,0.0,5,0.9599999999998805
104,5.278970399987884,0.96,0.25,0.0,5,0.9599999999998805
105,5.326995399955194,0.96,0.25,0.0,5,0.9599999999998805
106,5.37392899999395,0.96,0.25,0.0,5,0.9599999999998805
107,5.41992559999926,0.96,0.25,0.0,5,0.9599999999998805
108,5.465938199951779,0.96,0.25,0.0,5,0.9599999999998805
109,5.5127129999455065,0.96,0.25,0.0,5,0.9599999999998805
110,5.560822299972642,0.96,0.25,0.0,5,0.9599999999998805
111,5.608818899956532,0.96,0.25,0.0,5,0.9599999999998805
112,5.657133799977601,0.96,0.25,0.0,5,0.9599999999998805
113,5.703116399992723,0.96,0.25,0.0,5,0.9599999999998805
114,5.750309599970933,0.96,0.25,0.0,5,0.9599999999998805
115,5.798647099989466,0.96,0.25,0.0,5,0.9599999999998805
116,5.84605939994799,0.96,0.25,0.0,5,0.9599999999998805
117,5.893832799978554,0.96,0.25,0.0,5,0.9599999999998805
118,5.940399199957028,0.96,0.25,0.0,5,0.9599999999998805
119,5.9856767999590375,0.96,0.25,0.0,5,0.9599999999998805
120,6.032782899972517,0.96,0.25,0.0,4,0.9599999999998805
121,6.079954299959354,0.96,0.25,0.0,4,0.9599999999998805
122,6.127863999980036,0.96,0.25,0.0,4,0.9599999999998805
123,6.174025399959646,0.96,0.25,0.0,4,0.9599999999998805
124,6.21996489999583,0.96,0.25,0.0,4,0.9599999999998805
125,6.266838299983647,0.96,0.25,0.0,4,0.9599999999998805
126,6.313811099971645,0.96,0.25,0.0,4,0.9599999999998805
127,6.36125479999464,0.96,0.25,0.0,4,0.9599999999998805
128,6.405849099974148,0.96,0.25,0.0,4,0.9599999999998805
129,6.453865799994674,0.96,0.25,0.0,4,0.9599999999998805
130,6.500881999963895,0.96,0.36,0.0,4,0.9599999999998805
131,6.548781599965878,0.96,0.25,0.0,4,0.9599999999998805
132,6.596140299981926,0.96,0.25,0.0,4,0.9599999999998805
133,6.641921799979173,0.96,0.25,0.0,4,0.9599999999998805
134,6.689330899971537,0.96,0.25,0.0,4,0.9599999999998805
135,6.751324399956502,0.96,0.25,0.0,4,0.9599999999998805
136,6.799373099987861,0.96,0.25,0.0,4,0.9599999999998805
137,6.846129499957897,0.96,0.25,0.0,4,0.9599999999998805
138,6.892990699969232,0.96,0.25,0.0,4,0.9599999999998805
139,6.938916999963112,0.96,0.25,0.0,4,0.9599999999998805
140,6.98667509999359,0.96,0.25,0.0,4,0.9599999999998805
141,7.0336695999722,0.96,0.25,0.0,4,0.9599999999998805
142,7.095665999979246,0.96,0.25,0.0,3,0.9599999999998805
143,7.143040199996904,0.96,0.25,0.0,3,0.9599999999998805
144,7.206014099996537,0.96,0.25,0.0,3,0.9599999999998805
145,7.253053299966268,0.96,0.25,0.0,3,0.9599999999998805
146,7.299355199967977,0.96,0.25,0.0,3,0.9599999999998805
147,7.344973500003107,0.96,0.25,0.0,3,0.9599999999998805
148,7.393038799986243,0.96,0.25,0.0,3,0.9599999999998805
149,7.453648699971382,0.96,0.25,0.0,3,0.9599999999998805
150,7.500218099972699,0.96,0.25,0.0,3,0.9599999999998805
151,7.547129299957305,0.96,0.25,0.0,3,0.9599999999998805
152,7.593571399978828,0.96,0.25,0.0,3,0.9599999999998805
153,7.640470999991521,0.96,0.25,0.0,3,0.9599999999998805
154,7.690117099962663,0.96,0.25,0.0,3,0.9599999999998805
155,7.750129299995024,0.96,0.36,0.0,3,0.9599999999998805
156,7.795926699996926,0.96,0.25,0.0,3,0.9599999999998805
157,7.841935199976433,0.96,0.25,0.0,3,0.9599999999998805
158,7.889849499973934,0.96,0.25,0.0,3,0.9599999999998805
159,7.937443999981042,0.96,0.25,0.0,3,0.9599999999998805
160,7.98431279999204,0.96,0.25,0.0,3,0.9599999999998805
161,8.045746299962047,0.96,0.25,0.0,3,0.9599999999998805
162,8.092403499991633,0.96,0.25,0.0,3,0.9599999999998805
163,8.141012399981264,0.96,0.25,0.0,2,0.9599999999998805
164,8.187227399961557,0.96,0.25,0.0,2,0.9599999999998805
165,8.233514199964702,0.96,0.25,0.0,2,0.9599999999998805
166,8.27920589997666,0.96,0.25,0.0,2,0.9599999999998805
167,8.32679309998639,0.96,0.25,0.0,2,0.9599999999998805
168,8.375131999957375,0.96,0.36,0.0,2,0.9599999999998805
169,8.422396999958437,0.96,0.25,0.0,2,0.9599999999998805
170,8.51474179996876,0.96,0.25,0.0,2,0.9599999999998805
171,8.560318499978166,0.96,0.25,0.0,2,0.9599999999998805
172,8.621095499955118,0.96,0.25,0.0,2,0.9599999999998805
173,8.685399299953133,0.96,0.25,0.0,2,0.9599999999998805
174,8.745460399950389,0.96,0.25,0.0,2,0.9599999999998805
175,8.806590599997435,0.96,0.25,0.0,2,0.9599999999998805
176,8.852566099958494,0.96,0.25,0.0,2,0.9599999999998805
177,8.900549499958288,0.96,0.25,0.0,2,0.9599999999998805
178,8.960575599980075,0.96,0.25,0.0,2,0.9599999999998805
179,9.006959999969695,0.96,0.25,0.0,2,0.9599999999998805
180,9.054767299967352,0.96,0.25,0.0,2,0.9599999999998805
181,9.10130639997078,0.96,0.25,0.0,2,0.9599999999998805
182,9.16290699999081,0.96,0.25,0.0,2,0.9599999999998805
183,9.208818999992218,0.96,0.25,0.0,2,0.9599999999998805
184,9.256340499967337,0.96,0.25,0.0,2,0.9599999999998805
185,9.301934999995863,0.96,0.25,0.0,1,0.9599999999998805
186,9.350036599964367,0.96,0.25,0.0,1,0.9599999999998805
187,9.3968246000004,0.96,0.25,0.0,1,0.9599999999998805
188,9.456962700001895,0.96,0.25,0.0,1,0.9599999999998805
189,9.504724400001578,0.96,0.25,0.0,1,0.9599999999998805
190,9.551664799975695,0.96,0.25,0.0,1,0.9599999999998805
191,9.599840899987612,0.96,0.25,0.0,1,0.9599999999998805
192,9.645920999988448,0.96,0.25,0.0,1,0.9599999999998805
193,9.692465999978594,0.96,0.25,0.0,1,0.9599999999998805
194,9.738932699954605,0.96,0.25,0.0,1,0.9599999999998805
195,9.785776599950625,0.96,0.25,0.0,1,0.9599999999998805
196,9.833244399982505,0.96,0.25,0.0,1,0.9599999999998805
197,9.879929399990942,0.96,0.25,0.0,1,0.9599999999998805
198,9.925900399975944,0.96,0.25,0.0,1,0.9599999999998805
199,9.973317199968731,0.96,0.25,0.0,1,0.9599999999998805
200,10.02096159994835,0.96,0.25,0.0,1,0.9599999999998805
201,10.068854299956,0.96,0.25,0.0,1,0.9599999999998805
202,10.116554799955338,0.96,0.25,0.0,1,0.9599999999998805
203,10.16095269995276,0.96,0.25,0.0,1,0.9599999999998805
204,10.207973199954722,0.96,0.25,0.0,1,0.9599999999998805
205,10.254963399958797,0.96,0.25,0.0,1,0.9599999999998805
206,10.301168499980122,0.96,0.25,0.0,1,0.9599999999998805
207,10.360792299965397,0.96,0.25,0.0,0,0.9599999999998805
208,10.406781599973328,0.96,0.25,0.0,0,0.9599999999998805
209,10.452770499978216,0.96,0.25,0.0,0,0.9599999999998805
210,10.500677899981383,0.96,0.25,0.0,0,0.9599999999998805
211,10.54833579994738,0.96,0.25,0.0,0,0.9599999999998805
212,10.5940870999475,0.96,0.25,0.0,0,0.9599999999998805
213,10.640078499971423,0.96,0.25,0.0,0,0.9599999999998805
214,10.686157399963122,0.96,0.25,0.0,0,0.9599999999998805
215,10.73418439994566,0.96,0.25,0.0,0,0.9599999999998805
216,10.782461899972986,0.96,0.25,0.0,0,0.9599999999998805
217,10.827100199996494,0.96,0.25,0.0,0,0.9599999999998805
218,10.8741065999493,0.96,0.25,0.0,0,0.9599999999998805
219,10.92095119995065,0.96,0.25,0.0,0,0.9599999999998805
220,10.968111599970143,0.96,0.25,0.0,0,0.9599999999998805
221,11.015077199961524,0.96,0.36,0.0,0,0.9599999999998805
222,11.060810599999968,0.96,0.25,0.0,0,0.9599999999998805
223,11.10678629996255,0.96,0.25,0.0,0,0.9599999999998805
224,11.15521269995952,0.96,0.25,0.0,0,0.9599999999998805
225,11.217091500002423,0.96,0.25,0.0,0,0.9599999999998805
226,11.2653641999932,0.96,0.25,0.0,0,0.9599999999998805
227,11.310623299970755,0.96,0.25,0.0,0,0.9599999999998805
228,11.359043999982532,0.96,0.25,0.0,0,0.9599999999998805
229,11.406066600000486,0.96,0.25,0.0,0,0.9599999999998805
230,11.466956699965522,0.96,0.25,0.0,0,0.9599999999998805
231,11.514364799950272,0.96,0.25,0.0,0,0.9599999999998805
232,11.560139899956994,0.96,0.25,0.0,0,0.9599999999998805
233,11.606232899997847,0.96,0.25,0.0,0,0.9599999999998805
234,11.65297939995071,0.96,0.25,0.0,0,0.9599999999998805
235,11.715913299995009,0.96,0.25,0.0,0,0.9599999999998805
236,11.777109599963296,0.96,0.25,0.0,0,0.9599999999998805
237,11.824067199951967,0.96,0.25,0.0,0,0.9599999999998805
238,11.87214159994619,0.96,0.25,0.0,0,0.9599999999998805
239,11.920187899959274,0.96,0.25,0.0,0,0.9599999999998805
240,11.966922799998429,0.96,0.25,0.0,0,0.9599999999998805
241,12.027289899997411,0.96,0.25,0.0,0,0.9599999999998805
242,12.07417609996628,0.96,0.25,0.0,0,0.9599999999998805
243,12.121531199954916,0.96,0.25,0.0,0,0.9599999999998805
244,12.168825100001412,0.96,0.25,0.0,0,0.9599999999998805
245,12.216857599967623,0.96,0.25,0.0,0,0.9599999999998805
246,12.262278699956369,0.96,0.25,0.0,0,0.9599999999998805
247,12.309132999973372,0.96,0.25,0.0,0,0.9599999999998805
248,12.371002799947746,0.96,0.25,0.0,0,0.9599999999998805
249,12.432954799965955,0.96,0.25,0.0,0,0.9599999999998805
250,12.479227999981958,0.96,0.25,0.0,0,0.9599999999998805
251,12.527264899981674,0.96,0.25,0.0,0,0.9599999999998805
252,12.573303899960592,0.96,0.25,0.0,-1,0.9599999999998805
253,12.621222299989313,0.96,0.25,0.0,-1,0.9599999999998805
254,12.668227099988144,0.96,0.25,0.0,-1,0.9599999999998805
255,12.714741999981923,0.96,0.25,0.0,-1,0.9599999999998805
256,12.761570499977095,0.96,0.25,0.0,-1,0.9599999999998805
257,12.809381200000644,0.96,0.25,0.0,-1,0.9599999999998805
258,12.855524299957324,0.96,0.25,0.0,-1,0.9599999999998805
259,12.902464399987366,0.96,0.25,0.0,-1,0.9599999999998805
260,12.963968799973372,0.96,0.25,0.0,-1,0.9599999999998805
261,13.01117199996952,0.96,0.25,0.0,-1,0.9599999999998805
262,13.05850779998582,0.96,0.25,0.0,-1,0.9599999999998805
263,13.120662799978165,0.96,0.25,0.0,-1,0.9599999999998805
264,13.182840499968734,0.96,0.25,0.0,-1,0.9599999999998805
265,13.246907499968074,0.96,0.25,0.0,-1,0.9599999999998805
266,13.292113999952562,0.96,0.25,0.0,-1,0.9599999999998805
267,13.340135999955235,0.96,0.25,0.0,-1,0.9599999999998805
268,13.387075599981472,0.96,0.25,0.0,-1,0.9599999999998805
269,13.432774499990046,0.96,0.25,0.0,-1,0.9599999999998805
270,13.478891099977773,0.96,0.25,0.0,-1,0.9599999999998805
271,13.525244799966458,0.96,0.25,0.0,-1,0.9599999999998805
272,13.572241299960297,0.96,0.25,0.0,-1,0.9599999999998805
273,13.620368999952916,0.96,0.25,0.0,-1,0.9599999999998805
274,13.697698799951468,0.96,0.25,0.0,-2,0.9599999999998805
275,13.744275099947115,0.96,0.25,0.0,-2,0.9599999999998805
276,13.791629699990152,0.96,0.25,0.0,-2,0.9599999999998805
277,13.83860179997282,0.96,0.25,0.0,-2,0.9599999999998805
278,13.899520299979486,0.96,0.25,0.0,-2,0.9599999999998805
279,13.947163699951489,0.96,0.25,0.0,-2,0.9599999999998805
280,13.994598599965684,0.96,0.25,0.0,-2,0.9599999999998805
281,14.042914999998176,0.96,0.25,0.0,-2,0.9599999999998805
282,14.091246099967975,0.96,0.25,0.0,-2,0.9599999999998805
283,14.13708009995753,0.96,0.25,0.0,-2,0.9599999999998805
284,14.18485319998581,0.96,0.25,0.0,-2,0.9599999999998805
285,14.232437499973456,0.96,0.25,0.0,-2,0.9599999999998805
286,14.278840699989814,0.96,0.25,0.0,-2,0.9599999999998805
287,14.32505589997163,0.96,0.25,0.0,-2,0.9599999999998805
288,14.371058099961374,0.96,0.25,0.0,-2,0.9599999999998805
289,14.418905399972571,0.96,0.25,0.0,-2,0.9599999999998805
290,14.465819099976216,0.96,0.25,0.0,-2,0.9599999999998805
291,14.528836799960118,0.96,0.25,0.0,-2,0.9599999999998805
292,14.591217299981508,0.96,0.25,0.0,-2,0.9599999999998805
293,14.639080099994317,0.96,0.25,0.0,-2,0.9599999999998805
294,14.686800699972082,0.96,0.25,0.0,-2,0.9599999999998805
295,14.734791499970015,0.96,0.25,0.0,-2,0.9599999999998805
296,14.783025199954864,0.96,0.25,0.0,-2,0.9599999999998805
297,14.828844799951185,0.96,0.25,0.0,-3,0.9599999999998805
298,14.87613239994971,0.96,0.25,0.0,-3,0.9599999999998805
299,15.956135599990375,0.96,0.25,0.0,-4,0.9599999999998805
300,16.017112299974542,0.96,0.25,0.0,-4,0.9599999999998805
301,16.065817299997434,0.96,0.25,0.0,-4,0.9599999999998805
302,16.12721639999654,0.96,0.25,0.0,-4,0.9599999999998805
303,16.175237599993125,0.96,0.25,0.0,-4,0.9599999999998805
304,16.236107099975925,0.96,0.25,0.0,-4,0.9599999999998805
305,16.283290899998974,0.96,0.25,0.0,-4,0.9599999999998805
306,16.33022829995025,0.96,0.14,0.0,-4,0.9599999999998805
307,16.377638099947944,0.96,0.25,0.0,-4,0.9599999999998805
308,16.42475799995009,0.96,0.25,0.0,-4,0.9599999999998805
309,16.470360599982087,0.96,0.25,0.0,-4,0.9599999999998805
310,16.51816079998389,0.96,0.25,0.0,-4,0.9599999999998805
311,16.565644299960695,0.96,0.25,0.0,-4,0.9599999999998805
312,16.626177799946163,0.96,0.25,0.0,-4,0.9599999999998805
313,16.672395999950822,0.96,0.25,0.0,-4,0.9599999999998805
314,16.71766529994784,0.96,0.25,0.0,-4,0.9599999999998805
315,16.764391299977433,0.96,0.25,0.0,-4,0.9599999999998805
316,16.81144249998033,0.96,0.25,0.0,-4,0.9599999999998805
317,16.858543199952692,0.96,0.25,0.0,-4,0.9599999999998805
318,16.9064561999985,0.96,0.25,0.0,-4,0.9599999999998805
319,16.952479799976572,0.96,0.25,0.0,-4,0.9599999999998805
320,17.000326499983203,0.96,0.25,0.0,-4,0.9599999999998805
321,17.047710899962112,0.96,0.25,0.0,-4,0.9599999999998805
322,17.110348199959844,0.96,0.25,0.0,-5,0.9599999999998805
323,17.172084599966183,0.96,0.25,0.0,-5,0.9599999999998805
324,17.220084899978247,0.96,0.25,0.0,-5,0.9599999999998805
325,17.268021899973974,0.96,0.25,0.0,-5,0.9599999999998805
326,17.315401699976064,0.96,0.25,0.0,-5,0.9599999999998805
327,17.377018699946348,0.96,0.25,0.0,-5,0.9599999999998805
328,17.437394199951086,0.96,0.25,0.0,-5,0.9599999999998805
329,17.484830899978988,0.96,0.25,0.0,-5,0.9599999999998805
330,17.53261949995067,0.96,0.25,0.0,-5,0.9599999999998805
331,17.579501100000925,0.96,0.25,0.0,-5,0.9599999999998805
332,17.625031199946534,0.96,0.25,0.0,-5,0.9599999999998805
333,17.670755799976178,0.96,0.25,0.0,-5,0.9599999999998805
334,17.717824499995913,0.96,0.25,0.0,-5,0.9599999999998805
335,17.7663796999841,0.96,0.25,0.0,-5,0.9599999999998805
336,17.814007799956016,0.96,0.25,0.0,-5,0.9599999999998805
337,17.859577899973374,0.96,0.25,0.0,-5,0.9599999999998805
338,17.90677020000294,0.96,0.25,0.0,-5,0.9599999999998805
339,17.96767019998515,0.96,0.25,0.0,-5,0.9599999999998805
340,18.030380399955902,0.96,0.25,0.0,-5,0.9599999999998805
341,18.077697000000622,0.96,0.25,0.0,-5,0.9599999999998805
342,18.122606499993708,0.96,0.25,0.0,-5,0.9599999999998805
343,18.184396700002253,0.96,0.25,0.0,-6,0.9599999999998805
344,18.232412099954672,0.96,0.25,0.0,-6,0.9599999999998805
345,18.27894920000108,0.96,0.25,0.0,-6,0.9599999999998805
346,18.32543599995552,0.96,0.25,0.0,-6,0.9599999999998805
