,time,angle,pressure,set_point,motor_speed,Filtered_angle
0,0.0484097999869845,-0.14,6.46,0.0,65,-0.13999999999998697
1,0.0950980000197887,-0.14,5.26,0.0,65,-0.06155736210530284
2,0.1411980999982915,-0.14,6.24,0.0,65,0.016013236002141065
3,0.1871654000133276,0.64,5.48,0.0,65,0.09186505477719517
4,0.235613299999386,0.64,4.72,0.0,61,0.16520184080429487
5,0.2818502999725751,0.64,6.46,0.0,61,0.2353012881776683
6,0.3285172000178136,0.64,6.24,0.0,61,0.3015342128875559
7,0.3892896000179462,0.64,5.48,0.0,61,0.3633777670722176
8,0.4369389999774284,0.64,5.48,0.0,61,0.420422639982755
9,0.4842687000054866,0.64,5.48,0.0,61,0.47237506166469817
10,0.5463484000065364,0.64,5.26,0.0,60,0.519054545238
11,0.6085133000160567,0.64,5.26,0.0,60,0.5603882319823168
12,0.6688804000150412,0.64,5.59,0.0,60,0.5964026272686165
13,0.7167910999851301,0.64,5.48,0.0,60,0.6272134364051387
14,0.763864399981685,0.64,5.48,0.0,60,0.6530141292924015
15,0.8141198999946937,0.64,5.37,0.0,60,0.6740637828975891
16,0.8706948999897577,0.64,6.35,0.0,60,0.6906746723051153
17,0.9180376000003888,0.64,5.48,0.0,60,0.7032000056516744
18,0.965344099968206,0.64,6.35,0.0,60,0.7120221266053436
19,1.0138840000145135,0.64,5.7,0.0,60,0.7175414410098053
20,1.0806030000094324,0.64,5.7,0.0,60,0.7201662625141745
21,1.123453399981372,0.64,5.7,0.0,60,0.7203037158974323
22,1.1716969999833964,0.64,5.04,0.0,60,0.7183517866591135
23,1.2189638999989256,0.64,5.04,0.0,60,0.7146925614168494
24,1.2683860000106506,0.64,6.02,0.0,60,0.7096866657214993
25,1.3319496000185609,0.64,5.59,0.0,60,0.7036688739463982
26,1.3782346000079997,0.64,5.7,0.0,60,0.6969448397004736
27,1.4372333000064828,0.64,5.7,0.0,60,0.689788874442536
28,1.483702199999243,0.64,5.7,0.0,60,0.6824426862555056
29,1.531881999981124,0.64,5.7,0.0,60,0.6751149796437231
30,1.5772622000076808,0.64,6.57,0.0,60,0.6679818102780609
31,1.6249422999680974,0.64,5.91,0.0,60,0.6611875853462555
32,1.6852554999641145,0.64,5.26,0.0,60,0.6548466000763974
33,1.7338043000199832,0.64,6.02,0.0,60,0.6490450036006608
34,1.7955846000113524,0.64,5.26,0.0,60,0.643843092138932
35,1.842822999984492,0.64,6.02,0.0,60,0.6392778340549574
36,1.9059488999773748,0.64,5.48,0.0,60,0.6353655392466746
37,1.9664199000108056,0.64,6.02,0.0,60,0.6321045941869958
38,2.030137399968225,0.64,6.02,0.0,60,0.6294781933783765
39,2.07683029997861,0.64,6.68,0.0,60,0.627457007710609
40,2.123221200017724,0.64,6.02,0.0,60,0.6260017399438368
41,2.169384600012563,0.64,6.24,0.0,60,0.6250655270460528
42,2.216766199970152,0.64,5.91,0.0,60,0.6245961582045892
43,2.2780237999977544,0.64,5.91,0.0,59,0.624538085851021
44,2.328940599982161,0.64,6.02,0.0,59,0.6248342148713342
45,2.373222199967131,0.64,6.02,0.0,59,0.6254274622344952
46,2.4186145999701694,0.64,6.46,0.0,59,0.6262620855094309
47,2.466734700021334,0.64,6.02,0.0,59,0.6272847841267624
48,2.5126343999872915,0.64,5.48,0.0,59,0.6284455817749917
49,2.5578610000084154,0.64,5.91,0.0,59,0.6296985020190177
50,2.603882599971257,0.64,5.48,0.0,59,0.6310020521265245
51,2.6513058000127785,0.64,5.37,0.0,59,0.6323195322331335
52,2.6988484999747016,0.64,5.91,0.0,59,0.6336191884288964
53,2.744531799980905,0.64,5.7,0.0,59,0.6348742291729322
54,2.793499999970664,0.64,7.0,0.0,59,0.636062724710892
55,2.840135400008876,0.64,6.02,0.0,59,0.6371674089551279
56,2.8867870999965817,0.64,5.81,0.0,59,0.6381754026640889
57,2.9352729999809526,0.64,6.9,0.0,59,0.6390778757983875
58,2.980512299982365,0.64,6.02,0.0,59,0.6398696657062065
59,3.029021499969531,0.64,6.68,0.0,59,0.6405488663662607
60,3.0905515999766067,0.64,7.11,0.0,59,0.6411164023534738
61,3.15358300000662,0.64,6.9,0.0,59,0.6415755995463138
62,3.1985023000161164,0.64,5.48,0.0,59,0.6419317629146981
63,3.248353599978145,0.64,6.02,0.0,59,0.6421917700565429
64,3.292037100007292,0.64,5.59,0.0,59,0.6423636875259883
65,3.3395714999642223,0.64,6.9,0.0,59,0.6424564154473438
66,3.3862034999765456,0.64,6.02,0.0,59,0.6424793644600587
67,3.4316606000065804,0.64,5.59,0.0,59,0.6424421677099107
68,3.480076599982567,0.64,6.9,0.0,59,0.6423544294031819
69,3.5313706999877468,0.64,6.02,0.0,59,0.642225510382002
70,3.57248819997767,0.64,7.0,0.0,59,0.642064350264092
71,3.6188870000187303,0.64,6.13,0.0,59,0.6418793249188086
72,3.664818399993237,0.64,6.02,0.0,59,0.6416781374203957
73,3.712469399964903,0.64,7.0,0.0,59,0.6414677401226706
74,3.7649219000013545,0.64,6.24,0.0,59,0.6412542851288412
75,3.822876299964264,0.64,6.24,0.0,59,0.6410431001758604
76,3.869932700006757,0.64,5.91,0.0,58,0.6408386868036069
77,3.930786899989471,0.64,6.79,0.0,58,0.6406447376233372
78,3.978336800006218,0.64,5.81,0.0,58,0.6404641695250081
79,4.023230199993122,0.64,6.02,0.0,58,0.6402991697568713
80,4.068869300012011,0.64,5.48,0.0,58,0.6401512519610782
81,4.131118699966464,0.64,6.02,0.0,58,0.6400213194442405
82,4.178632800001651,0.64,6.9,0.0,58,0.639909733191001
83,4.227583499974571,0.64,6.24,0.0,58,0.6398163823815135
84,4.273894999991171,0.64,6.9,0.0,58,0.6397407554410767
85,4.318709700019099,0.64,6.24,0.0,58,0.6396820099238051
86,4.398399199999403,0.64,5.48,0.0,58,0.6396390398049827
87,4.44397319998825,0.64,6.02,0.0,58,0.6396105390225117
88,4.492122999974527,0.64,6.13,0.0,58,0.6395950603615933
89,4.553095999988727,0.64,5.7,0.0,58,0.639591069014403
90,4.59813940001186,0.64,6.57,0.0,58,0.6395969903649538
91,4.647445700014941,0.64,7.22,0.0,58,0.6396112517463672
92,4.693176699976903,0.64,6.13,0.0,58,0.6396323180920128
93,4.739799899980426,0.64,7.0,0.0,58,0.6396587215527297
94,4.786768999998458,0.64,6.24,0.0,58,0.6396890852796027
95,4.832784199970774,0.64,6.9,0.0,58,0.6397221416760007
96,4.880563999991864,0.64,6.79,0.0,58,0.6397567455047845
97,4.928348599991296,0.64,6.02,0.0,58,0.639791882298043
98,4.975906500010751,0.64,7.11,0.0,58,0.6398266725590602
99,5.021925600012764,0.64,6.02,0.0,58,0.6398603722712213
100,5.082841199997347,0.64,5.7,0.0,58,0.6398923702382043
101,5.129225599986967,0.64,5.48,0.0,58,0.6399221827760707
102,5.177164799999446,0.64,6.02,0.0,58,0.6399494462627863
103,5.225252699980047,0.64,6.13,0.0,58,0.6399739080262747
104,5.2734051999868825,0.64,5.81,0.0,58,0.6399954160202338
105,5.333871399983764,0.64,6.02,0.0,58,0.6400139076994352
106,5.379334700002801,0.64,7.0,0.0,58,0.6400293984647716
107,5.4260099999955855,0.64,6.13,0.0,58,0.6400419700044038
108,5.472686499997508,0.64,7.0,0.0,57,0.6400517588123832
109,5.51752639998449,0.64,6.02,0.0,57,0.6400589451212375
110,5.56419740000274,0.64,6.9,0.0,57,0.6400637424412393
111,5.611043500015512,0.64,6.02,0.0,57,0.6400663878572557
112,5.658134699973743,0.64,5.48,0.0,57,0.6400671331948798
113,5.704593500006013,0.64,5.91,0.0,57,0.640066237131483
114,5.766978600004222,0.64,5.48,0.0,57,0.6400639582952691
115,5.812670400016941,0.64,6.13,0.0,57,0.6400605493665994
116,5.860784799966496,0.64,7.0,0.0,57,0.6400562521708917
117,5.909361199999694,0.64,6.02,0.0,57,0.6400512937313043
118,5.956488199997693,0.64,7.0,0.0,57,0.6400458832321093
119,6.00184939999599,0.64,6.02,0.0,57,0.6400402098299797
120,6.078114499978256,0.64,6.35,0.0,57,0.640034441240162
121,6.126133100013249,0.64,6.13,0.0,57,0.6400287230174024
122,6.1721163999754936,0.64,6.02,0.0,57,0.6400231784472525
123,6.233994000009261,0.64,6.79,0.0,57,0.640017908961683
124,6.28123909997521,0.64,5.91,0.0,57,0.6400129949934502
125,6.328088400012348,0.64,6.13,0.0,57,0.6400084971860481
126,6.374855800007936,0.64,6.13,0.0,57,0.6400044578800259
127,6.422388500010129,0.64,6.13,0.0,57,0.6400009028016348
128,6.483260200009681,0.64,6.24,0.0,57,0.6399978428858861
129,6.53192370000761,0.64,5.48,0.0,57,0.6399952761728877
130,6.592639699985739,0.64,5.91,0.0,57,0.6399931897235214
131,6.640225399984047,0.64,6.9,0.0,57,0.6399915615079098
132,6.686428399989381,0.64,6.02,0.0,57,0.639990362227492
133,6.733209099969827,0.64,6.9,0.0,57,0.6399895570387316
134,6.781109199975617,0.64,6.02,0.0,57,0.6399891071533659
135,6.8274588999920525,0.64,5.48,0.0,57,0.639988971296562
136,6.875998699979391,0.64,5.91,0.0,57,0.6399891070102987
137,6.923784099984914,0.64,5.48,0.0,57,0.6399894717946631
138,6.971620199969038,0.64,5.91,0.0,57,0.639990024084515
139,7.018055199994706,0.64,5.91,0.0,57,0.6399907240631011
140,7.079675599990878,0.64,5.7,0.0,57,0.639991534317696
141,7.127854999969713,0.64,6.9,0.0,56,0.6399924203452158
142,7.177130999974906,0.64,5.91,0.0,56,0.6399933509180259
143,7.236933999985922,0.64,5.48,0.0,56,0.6399942983218715
144,7.283903400006238,0.64,6.02,0.0,56,0.6399952384790519
145,7.330850299971644,0.64,6.79,0.0,56,0.6399961509706753
146,7.376847499981523,0.64,5.81,0.0,56,0.6399970189721272
147,7.42410820000805,0.64,6.13,0.0,56,0.6399978291158188
148,7.469706500007305,0.64,5.48,0.0,56,0.6399985712948989
149,7.515861799998674,0.64,5.81,0.0,56,0.6399992384209793
150,7.561872599995695,0.64,5.37,0.0,56,0.6399998261480768
151,7.609413400001358,0.64,6.35,0.0,56,0.6400003325739799
152,7.657123900018632,0.64,6.02,0.0,56,0.6400007579291336
153,7.70271679997677,0.64,6.79,0.0,56,0.6400011042619584
154,7.750189599988516,0.64,5.91,0.0,56,0.6400013751283089
155,7.798739899997599,0.64,5.48,0.0,56,0.6400015752915611
156,7.846283399965614,0.64,5.81,0.0,56,0.6400017104386376
157,7.894999000011012,0.64,5.37,0.0,56,0.640001786916142
158,7.940927599964198,0.64,5.91,0.0,56,0.6400018114897108
159,8.002924899978098,0.64,6.02,0.0,56,0.6400017911287111
160,8.050692999968305,0.64,5.48,0.0,56,0.6400017328175227
161,8.098623199970461,0.64,5.7,0.0,56,0.640001643393858
162,8.144947499968112,0.64,5.91,0.0,56,0.640001529413889
163,8.190821999975014,0.64,6.57,0.0,56,0.6400013970433714
164,8.23794479999924,0.64,6.02,0.0,56,0.6400012519734819
165,8.286201599985361,0.64,5.59,0.0,56,0.6400010993597032
166,8.333957599999849,0.64,5.81,0.0,56,0.6400009437818105
167,8.380599099968094,0.64,5.37,0.0,56,0.6400007892228108
168,8.426783200004138,0.64,5.7,0.0,56,0.6400006390645655
169,8.473423300019931,0.64,5.26,0.0,56,0.6400004960977775
170,8.537784999993164,0.64,6.46,0.0,56,0.6400003625440288
171,8.584020200010855,0.64,6.35,0.0,56,0.6400002400876175
172,8.629848100012168,0.64,5.48,0.0,55,0.6400001299150465
173,8.67672049999237,0.64,5.81,0.0,55,0.6400000327601505
174,8.7239446999738,0.64,5.91,0.0,55,0.6399999489530128
175,8.769480899965856,0.64,6.57,0.0,55,0.6399998784710064
176,8.817338799999561,0.64,5.91,0.0,55,0.6399998209904832
177,8.861558299977332,0.64,6.57,0.0,55,0.6399997759378395
178,8.909521299996413,0.64,5.7,0.0,55,0.6399997425388787
179,8.956343700003345,0.64,5.91,0.0,55,0.6399997198655948
180,9.00362309999764,0.64,5.91,0.0,55,0.6399997068796799
181,9.050041800015606,0.64,6.57,0.0,55,0.6399997024722376
182,9.095661300001666,0.64,5.81,0.0,55,0.6399997054993477
183,9.142603999993298,0.64,6.57,0.0,55,0.6399997148132694
184,9.189549500006253,0.64,5.7,0.0,55,0.6399997292892049
185,9.2354764000047,0.64,5.81,0.0,55,0.6399997478476558
186,9.281796399969608,0.64,5.91,0.0,55,0.6399997694725018
187,9.327974800020456,0.64,6.46,0.0,55,0.6399997932250082
188,9.37625669996487,0.64,5.7,0.0,55,0.6399998182540338
189,9.421818599977996,0.64,5.15,0.0,55,0.6399998438027583
190,9.482477799989285,0.64,5.7,0.0,55,0.6399998692122785
191,9.53074060002109,0.64,5.81,0.0,55,0.6399998939224476
192,9.57601399999112,0.64,6.46,0.0,55,0.6399999174703378
193,9.621724599972367,0.64,5.59,0.0,55,0.6399999394867051
194,9.66942160000326,0.64,5.26,0.0,55,0.6399999596908287
195,9.716853799996898,0.64,5.7,0.0,55,0.6399999778840781
196,9.763552099990193,0.64,6.35,0.0,55,0.6399999939425388
197,9.80935579998186,0.64,5.81,0.0,55,0.6400000078090022
198,9.857901800016409,0.64,5.26,0.0,55,0.640000019484596
199,9.90254569996614,0.64,5.59,0.0,55,0.640000029020296
200,9.950376999971922,0.64,5.26,0.0,55,0.6400000365085343
201,9.998229799966794,0.64,5.7,0.0,55,0.6400000420750773
202,10.05849450000096,0.64,6.02,0.0,55,0.6400000458713225
203,10.105168599984609,0.64,5.04,0.0,55,0.6400000480671286
204,10.154187900014222,0.64,5.59,0.0,55,0.6400000488442659
205,10.232781799975784,0.64,5.04,0.0,55,0.6400000483905455
206,10.277539499977138,0.64,5.59,0.0,54,0.6400000468946634
207,10.325450400006956,0.64,5.7,0.0,54,0.640000044541774
208,10.372330499987584,0.64,6.35,0.0,54,0.6400000415097866
209,10.41887890000362,0.64,5.15,0.0,54,0.640000037966367
210,10.464405599981546,0.64,5.48,0.0,54,0.6400000340666061
211,10.51058419997571,0.64,5.7,0.0,54,0.6400000299513171
212,10.558689299970863,0.64,5.7,0.0,54,0.6400000257459035
213,10.60573840001598,0.64,5.04,0.0,54,0.6400000215597436
214,10.651533800002651,0.64,5.48,0.0,54,0.6400000174860293
215,10.69922489998862,0.64,5.37,0.0,54,0.6400000136019979
216,10.744216799968854,0.64,5.7,0.0,54,0.640000009969491
217,10.79235190001782,0.64,6.24,0.0,54,0.6400000066357825
218,10.837537200015504,0.64,5.37,0.0,54,0.6400000036346162
219,10.885233199980576,0.64,5.26,0.0,54,0.6400000009873983
220,10.931573199981358,0.64,5.59,0.0,54,0.6399999987044949
221,10.976119099999778,0.64,6.35,0.0,54,0.639999996786588
222,11.02528970001731,0.64,5.37,0.0,54,0.6399999952260519
223,11.071721100015566,0.64,5.15,0.0,54,0.6399999940083121
224,11.11906260001706,0.64,5.48,0.0,54,0.6399999931131619
225,11.166545099986251,0.64,6.24,0.0,54,0.6399999925160083
226,11.21238679997623,0.64,5.48,0.0,54,0.6399999921890309
227,11.260199400014244,0.64,5.59,0.0,54,0.6399999921022401
228,11.308098900015466,0.64,5.48,0.0,54,0.639999992224424
229,11.35364970000228,0.64,6.24,0.0,54,0.63999999252398
230,11.40044629998738,0.64,5.59,0.0,54,0.6399999929696268
231,11.44638420001138,0.64,6.24,0.0,54,0.639999993531002
232,11.493193099973723,0.64,5.04,0.0,54,0.6399999941791471
233,11.540731700020842,0.64,5.91,0.0,54,0.6399999948868875
234,11.6024119000067,0.64,5.59,0.0,54,0.6399999956291138
235,11.649365699966438,0.64,5.48,0.0,54,0.6399999963829759
236,11.696263100020587,0.64,5.81,0.0,54,0.6399999971280002
237,11.745256099966356,0.64,5.59,0.0,54,0.6399999978461397
238,11.79196950001642,0.64,6.24,0.0,54,0.6399999985217697
239,11.855417300015688,0.64,5.91,0.0,53,0.639999999141639
240,11.916513699979989,0.64,5.48,0.0,53,0.6399999996947878
241,11.96450589998858,0.64,5.48,0.0,53,0.6400000001724434
242,12.011991199979091,0.64,6.24,0.0,53,0.640000000567901
243,12.059071099967696,0.64,5.15,0.0,53,0.6400000008763996
244,12.104384000005666,0.64,5.26,0.0,53,0.6400000010949997
245,12.150713999988511,0.64,5.04,0.0,53,0.6400000012224675
246,12.19822339998791,0.64,6.13,0.0,53,0.6400000012591731
247,12.244620500016026,0.64,4.82,0.0,53,0.6400000012070032
248,12.29254359996412,0.64,5.26,0.0,53,0.6400000010692918
249,12.352978400012944,0.64,5.59,0.0,53,0.6400000008507687
250,12.400171699991915,0.64,4.82,0.0,53,0.6400000005575259
251,12.446418999985326,0.64,5.37,0.0,53,0.6400000001969993
252,12.4932281000074,0.64,6.13,0.0,53,0.6399999997779614
253,12.54075839999132,0.64,5.15,0.0,53,0.6399999993105232
254,12.587446399964392,0.64,5.15,0.0,53,0.6399999988061372
255,12.633953000011388,0.64,5.37,0.0,53,0.6399999982775978
256,12.67920499999309,0.64,6.13,0.0,53,0.6399999977390297
257,12.7273334999918,0.64,5.04,0.0,53,0.6399999972058584
258,12.775347399991006,0.64,5.37,0.0,53,0.6399999966947539
259,12.821455199969932,0.64,5.37,0.0,53,0.6399999962235408
260,12.86763409996638,0.64,6.02,0.0,53,0.6399999958110654
261,12.913451300002636,0.64,4.82,0.0,53,0.6399999954770138
262,12.961503300000912,0.64,5.15,0.0,53,0.6399999952416724
263,13.008460999990348,0.64,5.37,0.0,53,0.639999995125626
264,13.071701999986544,0.64,5.37,0.0,53,0.6399999951493889
265,13.11739959998522,0.64,5.26,0.0,53,0.6399999953329636
266,13.164631599967834,0.64,6.02,0.0,53,0.6399999956953277
267,13.21039359999122,0.64,5.15,0.0,53,0.6399999962538494
268,13.2736538000172,0.64,4.72,0.0,53,0.639999997023633
269,13.318451299972368,0.64,6.02,0.0,53,0.6399999980168017
270,13.36635580001166,0.64,5.15,0.0,53,0.6399999992417263
271,13.411867499991786,0.64,5.59,0.0,53,0.6400000007022102
272,13.459543599979952,0.64,5.26,0.0,53,0.6400000023966471
273,13.521339699975217,0.64,5.37,0.0,53,0.640000004317171
274,13.567855099972803,0.64,5.81,0.0,52,0.6400000064488178
275,13.61520699999528,0.64,4.72,0.0,52,0.6400000087687268
276,13.677627999975812,0.64,5.04,0.0,52,0.6400000112454103
277,13.725860600010492,0.64,4.93,0.0,52,0.6400000138381237
278,13.771552100020926,0.64,5.04,0.0,52,0.6400000164963696
279,13.8192097999854,0.64,5.26,0.0,52,0.6400000191595752
280,13.86608820001129,0.64,4.5,0.0,52,0.6400000217569806
281,13.913311199983582,0.64,5.15,0.0,52,0.6400000242077781
282,13.974797300004866,0.64,6.02,0.0,52,0.640000026421542
283,14.019066200009547,0.64,4.93,0.0,52,0.640000028298987
284,14.06763319997117,0.64,5.04,0.0,52,0.6400000297330933
285,14.12756300001638,0.64,4.93,0.0,52,0.6400000306106292
286,14.174570199975278,0.64,5.15,0.0,52,0.6400000308140981
287,14.234246300009543,0.64,5.81,0.0,52,0.6400000302241324
288,14.282174799998756,0.64,5.81,0.0,52,0.6400000287223451
289,14.32820069999434,0.64,4.93,0.0,52,0.6400000261946402
290,14.376355100015644,0.64,4.93,0.0,52,0.6400000225349739
291,14.422707199992146,0.64,5.04,0.0,52,0.6400000176495387
292,14.482359500019813,0.64,5.48,0.0,52,0.6400000114613356
293,14.530453599989414,0.64,5.04,0.0,52,0.6400000039150728
294,14.590765499975532,0.64,5.7,0.0,52,0.6399999949823202
295,14.652733499999158,0.64,5.37,0.0,52,0.6399999846668208
296,14.69899299996905,0.64,4.82,0.0,52,0.6399999730098468
297,14.746433299966156,0.64,5.04,0.0,52,0.6399999600954633
298,14.793774699966889,0.64,5.7,0.0,52,0.6399999460555447
299,14.84073840000201,0.64,4.72,0.0,52,0.639999931074365
300,14.88749719999032,0.64,5.37,0.0,52,0.63999991539257
301,14.933658099966124,0.64,5.04,0.0,52,0.6399998993103171
302,14.981462299998384,0.64,4.93,0.0,52,0.6399998831893602
303,15.02931469999021,0.64,4.39,0.0,52,0.6399998674538424
304,15.07550330000231,0.64,4.93,0.0,51,0.6399998525895585
305,15.121738000016194,0.64,4.82,0.0,51,0.6399998391414435
306,15.182360199978577,0.64,4.82,0.0,51,0.6399998277090577
307,15.230890600010753,0.64,5.04,0.0,51,0.6399998189398445
308,15.27755870000692,0.64,5.37,0.0,51,0.6399998135199654
309,15.324326500005554,0.64,4.93,0.0,51,0.6399998121625458
310,15.37238359998446,0.64,5.7,0.0,51,0.6399998155932045
311,15.43239979998907,0.64,4.93,0.0,51,0.6399998245327946
312,15.479856299993116,0.64,5.04,0.0,51,0.6399998396773408
313,15.541451899975073,0.64,5.04,0.0,51,0.6399998616752369
314,15.589825099974403,0.64,5.7,0.0,51,0.6399998911018437
315,15.635122900013812,0.64,4.61,0.0,51,0.6399999284317271
316,15.683093799976632,0.64,4.82,0.0,51,0.6399999740088772
317,15.744770899997093,0.64,4.93,0.0,51,0.6400000280153607
318,15.792727599968202,0.64,4.39,0.0,51,0.6400000904389784
319,15.83967879996635,0.64,4.93,0.0,51,0.6400001610406235
320,15.8852245999733,0.64,5.59,0.0,51,0.6400002393221607
321,15.93266940000467,0.64,4.82,0.0,51,0.6400003244957738
322,15.979000699997414,0.64,4.72,0.0,51,0.6400004154558494
323,16.04062059998978,0.64,4.93,0.0,51,0.640000510754577
324,16.10250229999656,0.64,4.39,0.0,51,0.64000060858255
325,16.150234700005967,0.64,4.61,0.0,51,0.6400007067557342
326,16.197546200011857,0.64,4.72,0.0,51,0.6400008027102303
327,16.244744699972216,0.64,4.72,0.0,51,0.6400008935062963
328,16.29152209998574,0.64,5.26,0.0,51,0.6400009758430909
329,16.35273549996782,0.64,4.39,0.0,51,0.6400010460855666
330,16.41451039997628,0.64,4.72,0.0,51,0.6400011003048527
331,16.461869799997658,0.64,4.82,0.0,51,0.6400011343333409
332,16.508767599996645,0.64,4.93,0.0,51,0.640001143835498
333,16.5559356000158,0.64,4.28,0.0,51,0.6400011243951803
334,16.602454199979547,0.64,4.82,0.0,51,0.6400010716199197
335,16.664680499990936,0.64,5.37,0.0,51,0.6400009812622766
336,16.71291719999863,0.64,4.72,0.0,51,0.6400008493579122
337,16.759756800020114,0.64,4.93,0.0,50,0.6400006723795317
338,16.805781900009606,0.64,4.93,0.0,50,0.6400004474052772
339,16.853690000018105,0.64,4.28,0.0,50,0.6400001722995262
340,16.91529959999025,0.64,4.72,0.0,50,0.6399998459033709
341,16.96271120000165,0.64,4.72,0.0,50,0.6399994682313324
342,17.008829099999275,0.64,5.59,0.0,50,0.6399990406701138
343,17.068824200017843,0.64,4.61,0.0,50,0.6399985661744295
344,17.116114699980244,0.64,4.72,0.0,50,0.6399980494541812
