,time,angle,pressure,set_point,motor_speed,Filtered_angle
0,0.0629322999739088,-0.51,4.72,0.0,68,-0.5394611098795548
1,0.1097836000262759,-0.51,5.37,0.0,68,-0.5437019734214162
2,0.1578950000111945,-0.51,6.46,0.0,68,-0.5476938454689642
3,0.206394899985753,-0.51,5.37,0.0,68,-0.5512761448212652
4,0.2538640000275336,-0.51,5.48,0.0,69,-0.5542699815818402
5,0.2998831999721005,-0.51,4.93,0.0,69,-0.5564794873810555
6,0.347905799979344,-0.51,5.59,0.0,69,-0.5576937665841245
7,0.3958531999960542,-0.51,5.48,0.0,69,-0.5576895117877595
8,0.4441286000073887,-0.51,5.04,0.0,69,-0.5562343148105474
9,0.4908356000087224,-0.51,5.7,0.0,69,-0.5530906891066772
10,0.5368064999929629,-0.51,5.48,0.0,69,-0.5480208008988531
11,0.5850867999834009,-0.51,4.82,0.0,69,-0.5407918842037411
12,0.6469714000122622,-0.51,5.7,0.0,69,-0.5311822892429013
13,0.6929227000218816,-0.51,6.79,0.0,69,-0.5189880844962979
14,0.7399008999927901,-0.51,5.91,0.0,69,-0.5040300999483759
15,0.7869282999890856,-0.51,5.7,0.0,69,-0.48616126307362345
16,0.8339027999900281,-0.51,5.15,0.0,69,-0.46527404008389733
17,0.8972601999994367,-0.51,6.35,0.0,69,-0.4413077532933983
18,0.9438890999881552,-0.51,6.79,0.0,69,-0.41425550163826425
19,1.0054478999809362,-0.51,6.02,0.0,69,-0.3841703660160967
20,1.052119900006801,-0.51,5.59,0.0,69,-0.35117053489430167
21,1.1013799000065774,-0.51,5.37,0.0,69,-0.3154429393844736
22,1.148800200026017,-0.51,6.9,0.0,69,-0.2772449415929758
23,1.195423299970571,-0.51,5.37,0.0,69,-0.23690357650841326
24,1.255383800016716,-0.51,6.13,0.0,69,-0.19481180699800962
25,1.3039244000101462,-0.51,5.7,0.0,69,-0.15142121470010134
26,1.3643300000112504,-0.51,6.35,0.0,69,-0.10723051774449842
27,1.4090088999946602,0.34,6.57,0.0,69,-0.06276948225548641
28,1.470198699971661,0.34,6.46,0.0,69,-0.018578785299883376
29,1.5173423999804072,0.34,5.59,0.0,65,0.024811806998025154
30,1.5653072000131942,0.34,7.11,0.0,65,0.06690357650842917
31,1.6272175000049174,0.34,6.46,0.0,65,0.10724494159299218
32,1.674199300003238,0.34,6.35,0.0,65,0.1454429393844905
33,1.7233790999744087,0.34,6.35,0.0,65,0.18117053489431906
34,1.786122300021816,0.34,6.35,0.0,65,0.2141703660161146
35,1.8313362000044435,0.34,7.44,0.0,65,0.24425550163828252
36,1.878187499998603,0.34,6.46,0.0,65,0.271307753293417
37,1.925181399972644,0.34,5.81,0.0,65,0.29527404008391644
38,1.972285100026056,0.34,6.13,0.0,65,0.31616126307364306
39,2.020680500019808,0.34,6.35,0.0,65,0.3340300999483959
40,2.066901999991387,0.34,6.35,0.0,65,0.34898808449631796
41,2.115182699984871,0.34,6.24,0.0,65,0.3611822892429212
42,2.1760777999879792,0.34,6.46,0.0,65,0.3707918842037603
43,2.237325399997644,0.34,6.46,0.0,65,0.3780208008988713
44,2.285021200019401,0.34,6.35,0.0,65,0.3830906891066942
45,2.330940100015141,0.34,6.46,0.0,65,0.38623431481056286
46,2.3931438999716192,0.34,6.35,0.0,65,0.3876895117877732
47,2.441618599987123,0.34,7.55,0.0,65,0.38769376658413635
48,2.4870343999937177,0.34,6.57,0.0,65,0.3864794873810653
49,2.536506799980998,0.34,5.81,0.0,64,0.38426998158184794
50,2.5812309000175446,0.34,7.44,0.0,64,0.38127614482127115
51,2.642269800009672,0.34,7.44,0.0,64,0.3776938454689684
52,2.689368500025012,0.34,7.55,0.0,64,0.3737019734214191
53,2.7363195000216365,0.34,6.57,0.0,64,0.3694611098795564
54,2.8002651000279,0.34,6.46,0.0,64,0.3651127656674447
55,2.846020700002555,0.34,6.46,0.0,64,0.3607791292113081
56,2.891559100011364,0.34,6.02,0.0,64,0.356563261295345
57,2.938739800010808,0.34,6.13,0.0,64,0.35254967185702746
58,2.987890799995512,0.34,7.22,0.0,64,0.34880521409117865
59,3.0332201999844983,0.34,6.57,0.0,64,0.34538023271250523
60,3.079797199985478,0.34,6.02,0.0,64,0.34230990610193157
61,3.1260622999980114,0.34,7.33,0.0,64,0.3396157259674091
62,3.1719499999890104,0.34,7.33,0.0,64,0.33730706283601447
63,3.21996090002358,0.34,6.57,0.0,64,0.33538277093203167
64,3.267027300025802,0.34,5.81,0.0,64,0.33383279157817
65,3.3133274000138044,0.34,7.55,0.0,64,0.33263972000023156
66,3.3596022999845445,0.34,6.68,0.0,64,0.3317803061594644
67,3.406254999979865,0.34,6.68,0.0,64,0.3312268658455701
68,3.4543831999762915,0.34,5.81,0.0,64,0.3309485836244226
69,3.5042854999774136,0.34,7.33,0.0,64,0.3309126942580845
70,3.5476123000262305,0.34,6.68,0.0,64,0.331085533832028
71,3.594203300017398,0.34,5.81,0.0,64,0.33143345598658513
72,3.6413487999816425,0.34,5.91,0.0,64,0.3319236123254372
73,3.689227499999106,0.34,7.33,0.0,64,0.3325245992482078
74,3.7376848999992944,0.34,6.68,0.0,64,0.3332069761256824
75,3.7966500999755226,0.34,5.91,0.0,64,0.33394366191545005
76,3.842540799989365,0.34,6.57,0.0,64,0.33471021902336867
77,3.904981300001964,0.34,5.91,0.0,64,0.33548503448066297
78,3.9510048999800342,0.34,6.57,0.0,64,0.3362494093622784
79,3.996387700026389,0.34,6.02,0.0,64,0.3369875678583672
80,4.057291899982374,0.34,7.55,0.0,64,0.3376865975693895
81,4.104877799982205,0.34,7.11,0.0,64,0.33833633246967215
82,4.152581300004385,0.34,6.9,0.0,64,0.3389291896180561
83,4.200745999987703,0.34,6.57,0.0,64,0.3394599701303698
84,4.2483211000217125,0.34,5.91,0.0,64,0.33992563420812644
85,4.2932394000235945,0.34,7.77,0.0,64,0.3403250591799447
86,4.341642200015485,0.34,7.44,0.0,64,0.3406587885926783
87,4.387548799975775,0.34,6.68,0.0,64,0.3409287794207621
88,4.435648999991827,0.34,5.91,0.0,64,0.34113815347389037
89,4.482577199989464,0.34,7.55,0.0,64,0.3412909581001463
90,4.543061700009275,0.34,6.68,0.0,64,0.34139194032565207
91,4.589958299999125,0.34,7.44,0.0,64,0.3414463376605153
92,4.639187299995683,0.34,6.68,0.0,64,0.3414596879485434
93,4.686883600021247,0.34,6.68,0.0,64,0.34143765985570756
94,4.7478745999978855,0.34,6.02,0.0,64,0.3413859048873386
95,4.7934486999874935,0.34,5.91,0.0,64,0.3413099312013294
96,4.840879799972754,0.34,7.66,0.0,64,0.34121499894643276
97,4.889361299981829,0.34,7.44,0.0,64,0.3411060364010717
98,4.93649930000538,0.34,6.68,0.0,64,0.3409875758169806
99,4.998165700002573,0.34,5.91,0.0,64,0.34086370757993445
100,5.0456223000073805,0.34,6.68,0.0,64,0.3407380510819808
101,5.094660800008569,0.34,6.13,0.0,64,0.3406137405501453
102,5.140518400003202,0.34,7.44,0.0,64,0.340493423989011
103,5.202681399998255,0.34,7.22,0.0,64,0.34037927336187723
104,5.250675400020555,0.34,7.22,0.0,64,0.3402730041501611
105,5.296085199981462,0.34,6.68,0.0,64,0.3401759024860421
106,5.3433076000073925,0.34,6.68,0.0,64,0.3400888581419411
107,5.389322499977425,0.34,6.24,0.0,64,0.34001240177540726
108,5.451353700016625,0.34,7.44,0.0,64,0.3399467449629026
109,5.499203399987891,0.34,6.35,0.0,64,0.33989182170484167
110,5.546389100025408,0.34,7.44,0.0,64,0.3398473302416344
111,5.606214499974158,0.34,6.68,0.0,64,0.3398127741815608
112,5.651101999974344,0.34,6.68,0.0,64,0.3397875021018552
113,5.697062799998093,0.34,6.13,0.0,63,0.33977074494080384
114,5.745324400020763,0.34,6.24,0.0,63,0.33976165064798886
115,5.7933747000060976,0.34,7.77,0.0,63,0.33975931569965595
116,5.839110100001562,0.34,6.79,0.0,63,0.3397628132147258
117,5.884768899995834,0.34,5.91,0.0,63,0.33977121752291434
118,5.94522130000405,0.34,7.55,0.0,63,0.3397836251389478
119,5.991832499974407,0.34,6.02,0.0,63,0.3397991721855656
120,6.0406449000001885,0.34,7.44,0.0,63,0.3398170483828728
121,6.08702059998177,0.34,6.79,0.0,63,0.3398365077829279
122,6.133810799976345,0.34,6.79,0.0,63,0.3398568764768016
123,6.193938800017349,0.34,6.02,0.0,63,0.3398775575374882
124,6.24233139998978,0.34,6.02,0.0,63,0.3398980334869456
125,6.289738500025123,0.34,6.02,0.0,63,0.33991786659023693
126,6.336695600009989,0.34,7.55,0.0,63,0.3399366972854005
127,6.398126000014599,0.34,6.79,0.0,63,0.33995424105545713
128,6.445565800007898,0.34,7.77,0.0,63,0.33997028404007584
129,6.490748599986546,0.34,6.79,0.0,63,0.3399846776700253
130,6.538648699992336,0.34,6.02,0.0,63,0.33999733258877085
131,6.599814700020943,0.34,6.79,0.0,63,0.3400082121034932
132,6.647611299995333,0.34,5.91,0.0,63,0.3400173253833961
133,6.694651399971917,0.34,7.77,0.0,63,0.34002472059732697
134,6.741730400011875,0.34,6.79,0.0,63,0.3400304781562558
135,6.789602399978321,0.34,6.9,0.0,63,0.3400347041997412
136,6.849961299973074,0.34,6.24,0.0,63,0.3400375244397522
137,6.896703600010369,0.34,6.13,0.0,63,0.3400390784506026
138,6.943710600025952,0.34,6.02,0.0,63,0.3400395144706867
139,6.990622700017411,0.34,7.66,0.0,63,0.34003898476048555
140,7.037735600024462,0.34,6.79,0.0,63,0.34003764154215493
141,7.084079199994449,0.34,6.79,0.0,63,0.34003563352905175
142,7.131268400000408,0.34,6.68,0.0,63,0.3400331030388692
143,7.191661900025792,0.34,6.79,0.0,63,0.3400301836716401
144,7.239786099991761,0.34,6.9,0.0,63,0.34002699852368706
145,7.286681699973997,0.34,6.68,0.0,63,0.34002365890055264
146,7.332575500011444,0.34,6.79,0.0,63,0.34002026348591124
147,7.379323699977249,0.34,6.9,0.0,63,0.34001689791928896
148,7.426599300000817,0.34,6.79,0.0,63,0.34001363473292456
149,7.473930899985135,0.34,6.35,0.0,63,0.34001053359711036
150,7.520839000004344,0.34,7.55,0.0,63,0.3400076418236551
151,7.580881499976385,0.34,7.66,0.0,63,0.3400049950785232
152,7.628664000018034,0.34,7.44,0.0,63,0.34000261825702865
153,7.676675800001249,0.34,6.79,0.0,63,0.34000052647801315
154,7.7226224999758415,0.34,6.79,0.0,63,0.3399987261570425
155,7.784763899981044,0.34,6.35,0.0,63,0.3399972161226497
156,7.832590200006962,0.34,6.35,0.0,63,0.33999598874388715
157,7.877844100003131,0.34,6.35,0.0,63,0.33999503104179885
158,7.92468050000025,0.34,7.77,0.0,63,0.33999432576176275
159,7.9706328000174835,0.34,6.9,0.0,63,0.3399938523878919
160,8.016630799975246,0.34,6.13,0.0,63,0.33999358808473557
161,8.063962400017772,0.34,7.77,0.0,63,0.33999350855532195
162,8.110762399970554,0.34,7.77,0.0,63,0.33999358880808656
163,8.158964400005061,0.34,6.79,0.0,63,0.3399938038283906
164,8.220658699981868,0.34,6.79,0.0,63,0.3399941291531369
165,8.26724000001559,0.34,6.46,0.0,63,0.33999454134942036
166,8.327651700004935,0.34,6.24,0.0,63,0.33999501840020546
167,8.376367099990603,0.34,6.35,0.0,63,0.33999554000171206
168,8.423595900007058,0.34,6.13,0.0,63,0.33999608777852836
169,8.471259900019504,0.34,6.9,0.0,63,0.3399966454234751
170,8.517322100000456,0.34,6.79,0.0,63,0.33999719876994416
171,8.563947000016924,0.34,6.9,0.0,63,0.33999773580485787
172,8.610982800018974,0.34,6.79,0.0,63,0.33999824663056655
173,8.657870499999262,0.34,6.79,0.0,63,0.33999872338396414
174,8.719802399980836,0.34,6.35,0.0,63,0.33999916012087583
175,8.767657399992459,0.34,6.79,0.0,63,0.33999955267339627
176,8.829668799997307,0.34,6.68,0.0,62,0.3399998984873614
177,8.875932199996896,0.34,6.57,0.0,62,0.3400001964465471
178,8.938015700026881,0.34,6.46,0.0,62,0.34000044668953616
179,8.983879500010516,0.34,6.46,0.0,62,0.3400006504244989
180,9.031926799973007,0.34,7.66,0.0,62,0.3400008097464203
181,9.078001399990171,0.34,6.9,0.0,62,0.34000092746059246
182,9.12589859997388,0.34,7.0,0.0,62,0.34000100691549484
183,9.171705599990672,0.34,6.24,0.0,62,0.34000105184751583
184,9.217709699994884,0.34,6.79,0.0,62,0.340001066239345
185,9.26589179999428,0.34,6.57,0.0,62,0.34000105419328536
186,9.31298849999439,0.34,6.68,0.0,62,0.3400010198202147
187,9.361086799995974,0.34,7.55,0.0,62,0.3400009671444615
188,9.42312769999262,0.34,6.9,0.0,62,0.34000090002445804
189,9.470907900016757,0.34,7.77,0.0,62,0.34000082208869503
190,9.51809929998126,0.34,6.9,0.0,62,0.3400007366862185
191,9.565938399988228,0.34,6.13,0.0,62,0.34000064685069126
192,9.672793700010516,0.34,7.33,0.0,62,0.34000055527687073
193,9.720735799986867,0.34,6.9,0.0,62,0.3400004643082394
194,9.768923599971458,0.34,6.79,0.0,62,0.3400003759344514
195,9.815799299976788,0.34,6.79,0.0,62,0.34000029179723085
196,9.87575880001532,0.34,7.22,0.0,62,0.34000021320335894
197,9.922916700015776,0.34,7.33,0.0,62,0.340000141143427
198,9.9707629000186,0.34,7.66,0.0,62,0.34000007631508905
199,10.016694099991582,0.34,6.9,0.0,62,0.34000001914963035
200,10.06393449997995,0.34,6.13,0.0,62,0.3399999698407649
201,10.11136219999753,0.34,7.77,0.0,62,0.3399999283746798
202,10.17181009997148,0.34,6.9,0.0,62,0.33999989456046
203,10.234020399977451,0.34,7.0,0.0,62,0.33999986806014343
204,10.28192510001827,0.34,6.13,0.0,62,0.3399998484177734
205,10.329838800011204,0.34,7.44,0.0,62,0.3399998350869308
206,10.376435999991372,0.34,6.9,0.0,62,0.3399998274563377
207,10.421737500000743,0.34,7.11,0.0,62,0.33999982487322705
208,10.469683700008318,0.34,6.9,0.0,62,0.33999982666426964
209,10.517599800019523,0.34,6.9,0.0,62,0.33999983215393426
210,10.5642939999816,0.34,6.13,0.0,62,0.3399998406802342
211,10.609674800012726,0.34,7.77,0.0,62,0.33999985160787993
212,10.657663399993908,0.34,6.9,0.0,62,0.3399998643389141
213,10.703910499985795,0.34,6.9,0.0,62,0.3399998783209505
214,10.76560480002081,0.34,7.33,0.0,62,0.3399998930531774
215,10.81366009998601,0.34,7.33,0.0,62,0.3399999080903116
216,10.858746399986558,0.34,6.9,0.0,62,0.33999992304471127
217,10.906561099982357,0.34,6.9,0.0,62,0.3399999375868654
218,10.954722900001798,0.34,6.13,0.0,62,0.33999995144448525
219,11.002957799995784,0.34,7.0,0.0,62,0.33999996440041985
220,11.048119499988388,0.34,6.68,0.0,62,0.3399999762896158
221,11.094637400005013,0.34,6.79,0.0,62,0.33999998699532796
222,11.140741500013974,0.34,7.11,0.0,62,0.3399999964447765
223,11.187703699979464,0.34,6.9,0.0,62,0.34000000460443036
224,11.235659099998884,0.34,6.13,0.0,62,0.3400000114750783
225,11.297746399999596,0.34,6.13,0.0,62,0.3400000170868319
226,11.358648099994753,0.34,6.13,0.0,62,0.34000002149418357
227,11.406696400023066,0.34,6.9,0.0,62,0.3400000247712244
228,11.45362310000928,0.34,6.13,0.0,62,0.34000002700710896
229,11.500211199978366,0.34,7.77,0.0,62,0.3400000283018336
230,11.545767900010103,0.34,6.79,0.0,62,0.34000002876238006
231,11.592652600025758,0.34,7.11,0.0,62,0.34000002849925853
232,11.653771999990568,0.34,7.11,0.0,62,0.3400000276234722
233,11.70015470002545,0.34,7.11,0.0,62,0.3400000262439107
234,11.761129699996673,0.34,6.9,0.0,62,0.3400000244651699
235,11.822912300005555,0.34,7.44,0.0,62,0.3400000223857866
236,11.871028999972625,0.34,7.33,0.0,62,0.34000002009686675
237,11.916193399985788,0.34,6.9,0.0,62,0.3400000176810836
238,11.961728400026914,0.34,6.9,0.0,62,0.34000001521201273
239,12.007606700004544,0.34,6.24,0.0,61,0.3400000127537717
240,12.05562749999808,0.34,6.79,0.0,61,0.3400000103609281
241,12.104064200015271,0.34,6.46,0.0,61,0.3400000080786391
242,12.151654899993446,0.34,6.24,0.0,61,0.34000000594298546
243,12.199702400015669,0.34,7.55,0.0,61,0.3400000039814642
244,12.259570399997756,0.34,6.9,0.0,61,0.3400000022136064
245,12.307544799987229,0.34,6.68,0.0,61,0.3400000006516868
246,12.356074700015595,0.34,6.35,0.0,61,0.3399999993014962
247,12.402930699987335,0.34,7.66,0.0,61,0.3399999981631501
248,12.464850199990906,0.34,6.9,0.0,61,0.3399999972319091
249,12.512291399994863,0.34,6.9,0.0,61,0.3399999964989917
250,12.55915190000087,0.34,6.57,0.0,61,0.33999999595236147
251,12.638941599987447,0.34,6.13,0.0,61,0.33999999557747396
252,12.684845699986909,0.34,6.68,0.0,61,0.3399999953579728
253,12.731627999979535,0.34,6.68,0.0,61,0.3399999952763261
254,12.779963099979796,0.34,6.24,0.0,61,0.33999999531439734
255,12.840578800009098,0.34,7.22,0.0,61,0.33999999545394766
256,12.88757020002231,0.34,6.24,0.0,61,0.33999999567706685
257,12.933846200001426,0.34,6.68,0.0,61,0.3399999959665347
258,12.980384700000286,0.34,6.35,0.0,61,0.3399999963061143
259,13.02665309997974,0.34,7.55,0.0,61,0.3399999966807803
260,13.088717699982226,0.34,6.79,0.0,61,0.3399999970768859
261,13.137131499999668,0.34,6.68,0.0,61,0.3399999974822748
262,13.182620199979285,0.34,6.57,0.0,61,0.3399999978863425
263,13.24364240001887,0.34,7.66,0.0,61,0.3399999982800533
264,13.290781999996398,0.34,6.35,0.0,61,0.339999998655919
265,13.337581200001296,0.34,7.66,0.0,61,0.3399999990079456
266,13.399946600024125,0.34,6.68,0.0,61,0.3399999993315531
267,13.461815999995451,0.34,6.68,0.0,61,0.3399999996234753
268,13.5100571999792,0.34,6.35,0.0,61,0.3399999998816435
269,13.57066859997576,0.34,6.68,0.0,61,0.3400000001050599
270,13.632770399970468,0.34,6.79,0.0,61,0.34000000029366534
271,13.694743199972436,0.34,7.55,0.0,61,0.3400000004482043
272,13.742783900001086,0.34,6.46,0.0,61,0.34000000057009117
273,13.790639200014994,0.34,7.66,0.0,61,0.34000000066128094
274,13.83849310001824,0.34,6.79,0.0,61,0.3400000007241459
275,13.883665299974382,0.34,6.9,0.0,61,0.34000000076136094
276,13.931570600019768,0.34,7.55,0.0,61,0.3400000007757987
277,13.97857869998552,0.34,6.79,0.0,61,0.3400000007704351
278,14.02651330002118,0.34,6.02,0.0,61,0.34000000074826603
279,14.073771200026384,0.34,6.68,0.0,61,0.34000000071223674
280,14.119764800008852,0.34,6.35,0.0,61,0.3400000006651814
281,14.167642200016417,0.34,6.13,0.0,61,0.34000000060977437
282,14.214846800023224,0.34,7.66,0.0,61,0.3400000005484925
283,14.262886599986814,0.34,6.68,0.0,61,0.3400000004835871
284,14.309569899982309,0.34,6.68,0.0,61,0.34000000041706513
285,14.35578629997326,0.34,7.44,0.0,61,0.3400000003506789
286,14.402588199998718,0.34,6.79,0.0,61,0.3400000002859228
287,14.449708400003146,0.34,6.57,0.0,61,0.3400000002240366
288,14.497825199970976,0.34,6.68,0.0,61,0.34000000016601406
289,14.546030399971642,0.34,6.68,0.0,61,0.340000000112616
290,14.591885200003162,0.34,6.02,0.0,61,0.34000000006438663
291,14.65292339998996,0.34,6.9,0.0,61,0.34000000002167263
292,14.699585900001694,0.34,6.13,0.0,61,0.3399999999846438
293,14.74800389999291,0.34,6.68,0.0,61,0.3399999999533152
294,14.79474390001269,0.34,6.35,0.0,61,0.3399999999275691
295,14.8407065999927,0.34,7.66,0.0,61,0.3399999999071769
296,14.92305059998762,0.34,6.57,0.0,61,0.3399999998918208
297,14.968112499976996,0.34,6.13,0.0,61,0.33999999988111385
298,15.014899700006936,0.34,6.02,0.0,60,0.3399999998746193
299,15.060619600000791,0.34,6.79,0.0,60,0.33999999987186796
300,15.108933300012724,0.34,6.46,0.0,60,0.3399999998723737
301,15.156169699970633,0.34,7.66,0.0,60,0.3399999998756475
302,15.203643399989232,0.34,6.9,0.0,60,0.33999999988120905
303,15.250632599985693,0.34,6.46,0.0,60,0.3399999998885971
304,15.29676820000168,0.34,7.77,0.0,60,0.3399999998973771
305,15.344894399982875,0.34,6.79,0.0,60,0.3399999999071478
306,15.392542099987622,0.34,6.57,0.0,60,0.3399999999175456
307,15.453858399996534,0.34,7.55,0.0,60,0.33999999992824814
308,15.49965469999006,0.34,7.55,0.0,60,0.3399999999389758
309,15.559622299973851,0.34,6.68,0.0,60,0.33999999994949187
310,15.620666500006337,0.34,6.57,0.0,60,0.3399999999596023
311,15.668786700000055,0.34,7.0,0.0,60,0.3399999999691539
312,15.716964700026438,0.34,6.68,0.0,60,0.33999999997803215
313,15.762756299984176,0.34,6.24,0.0,60,0.3399999999861578
314,15.808711700025016,0.34,6.57,0.0,60,0.33999999999348396
315,15.85659590002615,0.34,5.91,0.0,60,0.339999999999992
316,15.902668400027324,0.34,6.02,0.0,60,0.3400000000056877
317,15.950639499991668,0.34,6.57,0.0,60,0.34000000001059716
318,15.996695299982091,0.34,6.02,0.0,60,0.3400000000147624
319,16.04490400000941,0.34,6.57,0.0,60,0.34000000001823744
320,16.09200880001299,0.34,6.24,0.0,60,0.3400000000210847
321,16.139875499997288,0.34,6.02,0.0,60,0.34000000002337094
322,16.1860593999736,0.34,6.9,0.0,60,0.34000000002516395
323,16.24584990000585,0.34,6.35,0.0,60,0.3400000000265298
324,16.29288289998658,0.34,6.46,0.0,60,0.3400000000275297
325,16.34117349999724,0.34,5.91,0.0,60,0.3400000000282178
326,16.388737900007982,0.34,6.46,0.0,60,0.3400000000286392
327,16.434725400002208,0.34,6.24,0.0,60,0.3400000000288286
328,16.479852100019343,0.34,7.44,0.0,60,0.3400000000288087
329,16.542592899990268,0.34,5.81,0.0,60,0.34000000002859
330,16.604732499981765,0.34,6.46,0.0,60,0.3400000000281702
331,16.650847400014754,0.34,6.57,0.0,60,0.3400000000275347
332,16.69690629997058,0.34,6.57,0.0,60,0.34000000002665703
333,16.74488630000269,0.34,6.02,0.0,60,0.34000000002549974
334,16.791676499997266,0.34,6.46,0.0,60,0.34000000002401626
335,16.83969039999647,0.34,6.57,0.0,60,0.3400000000221526
336,16.900843799987342,0.34,5.91,0.0,60,0.34000000001984954
337,16.94763100001728,0.34,6.13,0.0,60,0.3400000000170451
338,16.994626500003505,0.34,7.0,0.0,60,0.3400000000136778
339,17.041654200002085,0.34,6.57,0.0,60,0.3400000000096897
