,time,angle,pressure,set_point,motor_speed,Filtered_angle
0,0.0483707999810576,0.12,0.25,0.0,14,0.12000000000047528
1,0.0945370999979786,0.12,0.25,0.0,14,0.12000000000048774
2,0.1422793000238016,0.12,0.25,0.0,14,0.12000000000048894
3,0.1899558000150136,0.12,0.25,0.0,14,0.12000000000047695
4,0.2365676999907009,0.12,0.25,0.0,14,0.12000000000044986
5,0.284827800001949,0.12,0.25,0.0,14,0.12000000000040578
6,0.3305841999826953,0.12,0.25,0.0,14,0.120000000000343
7,0.3771115000126883,0.12,0.25,0.0,14,0.12000000000025998
8,0.4228099000174552,0.12,0.25,0.0,14,0.12000000000015554
9,0.469484300003387,0.12,0.25,0.0,14,0.12000000000002878
10,0.5468464000150561,0.12,0.25,0.0,14,0.11999999999987929
11,0.5943085000035353,0.12,0.25,0.0,14,0.11999999999970723
12,0.6418634000001475,0.12,0.25,0.0,14,0.11999999999951338
13,0.7050161000224762,0.12,0.25,0.0,14,0.11999999999929922
14,0.7529542000265792,0.12,0.25,0.0,14,0.11999999999906699
15,0.7982664000010118,0.12,0.25,0.0,14,0.11999999999881986
16,0.8459434999967925,0.12,0.25,0.0,14,0.1199999999985619
17,0.8911192999803461,0.12,0.25,0.0,14,0.11999999999829819
18,0.9544632000033744,0.12,0.25,0.0,14,0.11999999999803485
19,1.000818700005766,0.12,0.25,0.0,14,0.11999999999777894
20,1.061327200033702,0.12,0.25,0.0,14,0.11999999999753858
21,1.1082992000156082,0.12,0.25,0.0,14,0.1199999999973228
22,1.155483499984257,0.12,0.25,0.0,14,0.1199999999971415
23,1.2019000999862328,0.12,0.25,0.0,14,0.11999999999700539
24,1.264592099993024,0.12,0.25,0.0,14,0.11999999999692582
25,1.3122239999938756,0.12,0.25,0.0,14,0.11999999999691446
26,1.3589075999916531,0.12,0.25,0.0,14,0.11999999999698324
27,1.406487500004005,0.12,0.25,0.0,14,0.11999999999714389
28,1.4545649000210688,0.12,0.25,0.0,14,0.11999999999740774
29,1.5151047999970615,0.12,0.25,0.0,14,0.11999999999778521
30,1.5640256000333466,0.12,0.25,0.0,14,0.11999999999828553
31,1.6087944000028074,0.12,0.25,0.0,14,0.11999999999891617
32,1.656431799987331,0.12,0.25,0.0,14,0.11999999999968242
33,1.7023874000296928,0.12,0.25,0.0,14,0.1200000000005868
34,1.7482776999822818,0.12,0.25,0.0,14,0.12000000000162864
35,1.7945635000360198,0.12,0.25,0.0,14,0.12000000000280342
36,1.840844699996524,0.12,0.36,0.0,14,0.12000000000410233
37,1.888940899982117,0.12,0.25,0.0,14,0.12000000000551167
38,1.9371868000016548,0.12,0.25,0.0,14,0.12000000000701255
39,1.9840610999963249,0.12,0.25,0.0,14,0.12000000000858038
40,2.0323417999898084,0.12,0.25,0.0,14,0.12000000001018463
41,2.076936100027524,0.12,0.25,0.0,14,0.12000000001178862
42,2.1231082000304013,0.12,0.25,0.0,14,0.12000000001334948
43,2.1706881999853067,0.12,0.25,0.0,14,0.1200000000148182
44,2.2170879000332206,0.12,0.25,0.0,14,0.12000000001613989
45,2.2644957000156865,0.12,0.25,0.0,14,0.12000000001725425
46,2.3128093000268564,0.12,0.25,0.0,14,0.12000000001809633
47,2.3575974000268616,0.12,0.25,0.0,14,0.12000000001859745
48,2.403520899999421,0.12,0.25,0.0,14,0.12000000001868638
49,2.449675199983176,0.12,0.25,0.0,14,0.12000000001829075
50,2.5301913000294007,0.12,0.25,0.0,14,0.12000000001733896
51,2.5771407000138424,0.12,0.25,0.0,14,0.12000000001576203
52,2.623498800036032,0.12,0.25,0.0,14,0.12000000001349603
53,2.669782500015572,0.12,0.25,0.0,14,0.12000000001048458
54,2.715732200013008,0.12,0.25,0.0,14,0.1200000000066816
55,2.7636091000167653,0.12,0.25,0.0,14,0.12000000000205435
56,2.8102413000306115,0.12,0.25,0.0,14,0.11999999999658656
57,2.8560667000128888,0.12,0.25,0.0,14,0.11999999999028155
58,2.9033621000126004,0.12,0.25,0.0,14,0.11999999998316568
59,2.9502603000146337,0.12,0.25,0.0,14,0.11999999997529148
60,2.998012700001709,0.12,0.36,0.0,14,0.1199999999667406
61,3.0600291999871843,0.12,0.25,0.0,14,0.11999999995762661
62,3.1081343999831006,0.12,0.25,0.0,14,0.1199999999480974
63,3.1553605999797583,0.12,0.25,0.0,14,0.11999999993833704
64,3.202505099994596,0.12,0.25,0.0,14,0.11999999992856708
65,3.2501829999964684,0.12,0.25,0.0,14,0.11999999991904686
66,3.298285000026226,0.12,0.25,0.0,14,0.11999999991007304
67,3.3448906000121497,0.12,0.25,0.0,14,0.11999999990197807
68,3.389443600026425,0.12,0.36,0.0,14,0.11999999989512738
69,3.4378577999887057,0.12,0.25,0.0,14,0.11999999988991511
70,3.4834726999979466,0.12,0.36,0.0,14,0.11999999988675858
71,3.5297252000309527,0.12,0.25,0.0,14,0.11999999988609097
72,3.5778802999993786,0.12,0.36,0.0,14,0.11999999988835253
73,3.622528599982616,0.12,0.25,0.0,14,0.11999999989397991
74,3.67157559999032,0.12,0.25,0.0,14,0.11999999990339402
75,3.7158673999947496,0.12,0.25,0.0,14,0.11999999991698596
76,3.76181599998381,0.12,0.25,0.0,14,0.11999999993510163
77,3.810001000005286,0.12,0.25,0.0,14,0.11999999995802485
78,3.855101900000591,0.12,0.25,0.0,14,0.11999999998595914
79,3.9027977000223473,0.12,0.25,0.0,14,0.12000000001900868
80,3.9508391999988817,0.12,0.25,0.0,14,0.12000000005715875
81,3.9980467000277713,0.12,0.25,0.0,14,0.12000000010025585
82,4.044641899992712,0.12,0.25,0.0,14,0.12000000014798834
83,4.090776500001084,0.12,0.25,0.0,14,0.12000000019986781
84,4.1380459000356495,0.12,0.25,0.0,14,0.12000000025521221
85,4.19906329998048,0.12,0.25,0.0,14,0.12000000031313121
86,4.247097000014037,0.12,0.25,0.0,14,0.12000000037251463
87,4.294074899982661,0.12,0.25,0.0,14,0.12000000043202469
88,4.341457700007595,0.12,0.25,0.0,14,0.12000000049009324
89,4.387868500023615,0.12,0.25,0.0,14,0.1200000005449244
90,4.449691799993161,0.12,0.25,0.0,14,0.12000000059450411
91,4.497834199981298,0.12,0.25,0.0,14,0.1200000006366167
92,4.557920399995055,0.12,0.25,0.0,14,0.12000000066886998
93,4.605518800031859,0.12,0.25,0.0,14,0.12000000068872918
94,4.652565600001253,0.12,0.25,0.0,14,0.12000000069356043
95,4.699697300035041,0.12,0.25,0.0,14,0.12000000068068425
96,4.7466372000053525,0.12,0.25,0.0,14,0.12000000064743949
97,4.792273800005205,0.12,0.25,0.0,14,0.12000000059125748
98,4.837954099988565,0.12,0.36,0.0,14,0.12000000050974635
99,4.885629500029609,0.12,0.25,0.0,14,0.1200000004007849
100,4.931876900023781,0.12,0.25,0.0,14,0.12000000026262522
101,4.99281319999136,0.12,0.25,0.0,14,0.12000000009400275
102,5.039092599996366,0.12,0.25,0.0,14,0.11999999989425206
103,5.086884899996221,0.12,0.36,0.0,14,0.11999999966342637
104,5.134435300016776,0.12,0.25,0.0,14,0.11999999940241796
105,5.18245239998214,0.12,0.25,0.0,14,0.11999999911307682
106,5.244465099996887,0.12,0.25,0.0,14,0.11999999879832376
107,5.322877400030848,0.12,0.36,0.0,14,0.11999999846225404
108,5.369181999994908,0.12,0.25,0.0,14,0.11999999811022735
109,5.415969900030177,0.12,0.25,0.0,14,0.11999999774893927
110,5.461879400012549,0.12,0.25,0.0,14,0.11999999738646899
111,5.507471200020518,0.12,0.25,0.0,14,0.1199999970322985
112,5.569344000017736,0.12,0.25,0.0,14,0.11999999669729722
113,5.616032499994617,0.12,0.25,0.0,14,0.11999999639366707
114,5.664932999992743,0.12,0.25,0.0,14,0.1199999961348428
115,5.725807600014377,0.12,0.25,0.0,14,0.11999999593534222
116,5.785052300023381,0.12,0.25,0.0,14,0.11999999581056231
117,5.832564499985892,0.12,0.25,0.0,14,0.11999999577651699
118,5.879901000007521,0.12,0.25,0.0,14,0.11999999584951415
119,5.97205149999354,0.12,0.25,0.0,14,0.11999999604576989
120,6.01877050002804,0.12,0.25,0.0,14,0.11999999638095973
121,6.082557999994606,0.12,0.25,0.0,14,0.11999999686970814
122,6.128682599985041,0.12,0.25,0.0,14,0.1199999975250195
123,6.1880308000254445,0.12,0.25,0.0,14,0.11999999835765585
124,6.235936800017953,0.12,0.25,0.0,14,0.11999999937546885
125,6.315041500027292,0.12,0.25,0.0,14,0.120000000582696
126,6.378595400019549,0.12,0.25,0.0,14,0.12000000197923422
127,6.423635800019838,0.12,0.25,0.0,14,0.12000000355990587
128,6.471463399997447,0.12,0.25,0.0,14,0.12000000531373592
129,6.519061300030444,0.12,0.25,0.0,14,0.12000000722326132
130,6.566016099997796,0.12,0.25,0.0,14,0.12000000926389631
131,6.613960499991663,0.12,0.25,0.0,14,0.12000001140338046
132,6.6598335999879055,0.12,0.25,0.0,14,0.12000001360133783
133,6.710531699995045,0.12,0.25,0.0,14,0.1200000158089784
134,6.755327299993951,0.12,0.25,0.0,14,0.12000001796897336
135,6.800446600012947,0.12,0.25,0.0,14,0.12000002001553753
136,6.861585800012108,0.12,0.25,0.0,14,0.12000002187475145
137,6.908164200023748,0.12,0.25,0.0,14,0.12000002346515554
138,6.956015600007959,0.12,0.25,0.0,14,0.12000002469864648
139,7.002413799986243,0.12,0.25,0.0,14,0.12000002548170319
140,7.04856770002516,0.12,0.25,0.0,14,0.12000002571696547
141,7.110535499989055,0.12,0.25,0.0,14,0.12000002530518339
142,7.158488199987914,0.12,0.25,0.0,14,0.12000002414754773
143,7.204737399995793,0.12,0.25,0.0,14,0.12000002214840436
144,7.252267699979711,0.12,0.25,0.0,14,0.12000001921834474
145,7.299083499994595,0.12,0.25,0.0,14,0.12000001527765425
146,7.345274200022686,0.12,0.25,0.0,14,0.12000001026008666
147,7.390187999990303,0.12,0.25,0.0,14,0.12000000411691952
148,7.438112100004218,0.12,0.25,0.0,14,0.11999999682122953
149,7.484309300023597,0.12,0.25,0.0,14,0.1199999883723113
150,7.529920000000857,0.12,0.25,0.0,14,0.11999997880014554
151,7.576886700000614,0.12,0.25,0.0,14,0.11999996816980596
152,7.62299050000729,0.12,0.25,0.0,14,0.11999995658567653
153,7.669768400024623,0.12,0.25,0.0,14,0.11999994419533438
154,7.715597100032028,0.12,0.25,0.0,14,0.11999993119293789
155,7.763102400000207,0.12,0.25,0.0,14,0.11999991782194538
156,7.824478099995758,0.12,0.25,0.0,14,0.11999990437697838
157,7.87175260001095,0.12,0.25,0.0,14,0.11999989120463428
158,7.91906340001151,0.12,0.25,0.0,14,0.11999987870304851
159,7.965938600013032,0.12,0.25,0.0,14,0.1199998673200057
160,8.01243499998236,0.12,0.25,0.0,14,0.11999985754940404
161,8.058141399989836,0.12,0.25,0.0,14,0.1199998499258878
162,8.105669100012165,0.12,0.36,0.0,14,0.11999984501748054
163,8.153193500009365,0.12,0.25,0.0,14,0.11999984341607628
164,8.216137700015679,0.12,0.25,0.0,14,0.11999984572567957
165,8.275744699989446,0.12,0.25,0.0,13,0.11999985254832601
166,8.32363230001647,0.12,0.25,0.0,13,0.11999986446766617
167,8.371780799992848,0.12,0.25,0.0,13,0.11999988203025455
168,8.431504799984396,0.12,0.25,0.0,13,0.11999990572465416
169,8.47919029998593,0.12,0.25,0.0,13,0.11999993595854391
170,8.524715100007597,0.12,0.25,0.0,13,0.11999997303410176
171,8.571313299995381,0.12,0.25,0.0,13,0.12000001712202821
172,8.617868200002704,0.12,0.25,0.0,13,0.12000006823467363
173,8.665571800025646,0.12,0.25,0.0,13,0.12000012619883496
174,8.712768400029745,0.12,0.25,0.0,13,0.12000019062889233
175,8.75874359998852,0.12,0.25,0.0,13,0.120000260901061
176,8.806548100023065,0.12,0.25,0.0,13,0.12000033612963576
177,8.85354650003137,0.12,0.25,0.0,13,0.12000041514620036
178,8.900253700034227,0.12,0.25,0.0,13,0.1200004964828604
179,8.947203000017907,0.12,0.36,0.0,13,0.12000057836063088
180,8.993410900002345,0.12,0.25,0.0,13,0.12000065868416282
181,9.041422199981753,0.12,0.25,0.0,13,0.12000073504402595
182,9.105043000017758,0.12,0.25,0.0,13,0.1200008047277687
183,9.166700900008436,0.12,0.25,0.0,13,0.12000086474094984
184,9.21241259999806,0.12,0.25,0.0,13,0.12000091183927192
185,9.259763700014446,0.12,0.25,0.0,13,0.12000094257284236
186,9.306133000005502,0.12,0.25,0.0,13,0.12000095334343805
187,9.353662399982568,0.12,0.25,0.0,13,0.12000094047545051
188,9.401809600007256,0.12,0.25,0.0,13,0.12000090030093824
189,9.460678500006908,0.12,0.36,0.0,13,0.12000082925890826
190,9.508202600001823,0.12,0.25,0.0,13,0.12000072400858963
191,9.570856800011825,0.12,0.25,0.0,13,0.12000058155604787
192,9.6182356000063,0.12,0.25,0.0,13,0.12000039939302182
193,9.665719399985392,0.12,0.25,0.0,13,0.12000017564634849
194,9.742628899984991,0.12,0.25,0.0,13,0.11999990923578155
195,9.804749800008722,0.12,0.25,0.0,13,0.11999960003741172
196,9.852257299993653,0.12,0.25,0.0,13,0.11999924904927475
197,9.899231199990028,0.12,0.25,0.0,13,0.11999885855509396
198,9.944337800028734,0.12,0.25,0.0,13,0.119998432281467
199,9.992465600022117,0.12,0.25,0.0,13,0.11999797554318553
200,10.053077500022482,0.12,0.25,0.0,13,0.11999749537079141
201,10.10109980002744,0.12,0.25,0.0,13,0.11999700061394789
202,10.162758000020403,0.12,0.25,0.0,13,0.11999650201375978
203,10.210584299988112,0.12,0.25,0.0,13,0.11999601223684125
204,10.25738540000748,0.12,0.25,0.0,13,0.11999554586372913
205,10.304267400002573,0.12,0.25,0.0,13,0.11999511932420331
206,10.351242100005038,0.12,0.25,0.0,13,0.11999475077223193
207,10.397359599999618,0.12,0.25,0.0,13,0.119994459893635
208,10.4461367999902,0.12,0.25,0.0,13,0.11999426764018647
209,10.494284800020978,0.12,0.25,0.0,13,0.11999419588477331
210,10.53867939999327,0.12,0.25,0.0,13,0.11999426699342552
211,10.584945000009611,0.12,0.25,0.0,13,0.11999450331154193
212,10.63032039999962,0.12,0.25,0.0,13,0.11999492656347371
213,10.678697300027125,0.12,0.25,0.0,13,0.11999555716680049
214,10.725822300009895,0.12,0.25,0.0,13,0.11999641346513884
215,10.771449299994856,0.12,0.25,0.0,13,0.1199975108861508
216,10.817191799986176,0.12,0.25,0.0,13,0.11999886103454988
217,10.862811600032728,0.12,0.25,0.0,13,0.12000047073330083
218,10.909502800030168,0.12,0.25,0.0,13,0.12000234102983304
219,10.957326799980365,0.12,0.25,0.0,13,0.1200044661878758
220,11.004407200030982,0.12,0.25,0.0,13,0.12000683268940604
221,11.052888300037012,0.12,0.25,0.0,13,0.12000941827508424
222,11.09813870000653,0.12,0.36,0.0,13,0.12001219105534217
223,11.143906500015872,0.12,0.25,0.0,13,0.12001510872785665
224,11.190878299996257,0.12,0.25,0.0,13,0.12001811794036621
225,11.23776089999592,0.12,0.25,0.0,13,0.12002115384051606
226,11.284881700004917,0.12,0.25,0.0,13,0.12002413985649468
227,11.330901000008453,0.12,0.25,0.0,13,0.12002698775348725
228,11.39187240001047,0.12,0.25,0.0,13,0.12002959801124385
229,11.438875899999402,0.12,0.25,0.0,13,0.12003186056717013
230,11.486597899987828,0.12,0.25,0.0,13,0.12003365596711896
231,11.53408599999966,0.12,0.25,0.0,13,0.12003485696232935
232,11.580882699985525,0.12,0.25,0.0,13,0.12003533058556459
233,11.64130680001108,0.12,0.25,0.0,13,0.120034940732309
234,11.691020700032825,0.12,0.25,0.0,13,0.12003355126377957
235,11.736057100002654,0.12,0.25,0.0,13,0.12003102963741202
236,11.783207200001923,0.12,0.25,0.0,13,0.1200272510573494
237,11.830228600010742,0.12,0.25,0.0,13,0.12002210312230183
238,11.875282099994363,0.12,0.25,0.0,13,0.12001549093101702
239,11.923050799989142,0.12,0.25,0.0,13,0.12000734258662782
240,11.971096099994613,0.12,0.36,0.0,13,0.11999761502051781
241,12.048019899986684,0.12,0.25,0.0,13,0.11998630003434024
242,12.108723199984524,0.12,0.25,0.0,13,0.11997343043579262
243,12.155218700005207,0.12,0.25,0.0,13,0.11995908612012973
244,12.202984899980947,0.12,0.25,0.0,13,0.11994339992572339
245,12.248852799995802,0.12,0.25,0.0,13,0.11992656306886995
246,12.342851700028405,0.12,0.25,0.0,13,0.11990882994122165
247,12.390742400020828,0.12,0.25,0.0,13,0.11989052203347389
248,12.43579790001968,0.12,0.25,0.0,13,0.11987203073215863
249,12.481634000025224,0.12,0.25,0.0,13,0.11985381872352568
250,12.544672699994408,0.12,0.25,0.0,13,0.11983641973054499
251,12.591970500012394,0.12,0.25,0.0,13,0.119820436307083
252,12.638331499998458,0.12,0.25,0.0,13,0.11980653541835812
253,12.68773589999182,0.12,0.25,0.0,13,0.11979544154992355
254,12.733519800007343,0.12,0.25,0.0,13,0.11978792710968292
255,12.780036300013307,0.12,0.25,0.0,13,0.11978479991976348
256,12.82804940000642,0.12,0.25,0.0,13,0.1197868876383015
257,12.87578390003182,0.12,0.25,0.0,13,0.11979501900602635
258,12.923353300022429,0.12,0.25,0.0,13,0.11981000187947094
259,12.969800300023053,0.12,0.25,0.0,13,0.11983259809194949
260,13.031534700014165,0.12,0.25,0.0,13,0.11986349527511131
261,13.093758200004231,0.12,0.25,0.0,13,0.11990327587754629
262,13.14076889998978,0.12,0.25,0.0,13,0.11995238373185013
263,13.186801799980458,0.12,0.25,0.0,13,0.12001108864659646
264,13.232334800006356,0.12,0.25,0.0,13,0.12007944963317821
265,13.277479199983643,0.12,0.25,0.0,13,0.12015727751734562
266,13.326023000001442,0.12,0.25,0.0,13,0.12024409782881795
267,13.387475800001994,0.12,0.25,0.0,13,0.12033911500637037
268,13.433246400032658,0.12,0.25,0.0,13,0.12044117909652308
269,13.493769099994095,0.12,0.25,0.0,13,0.12054875625706615
270,13.539895299996717,0.12,0.25,0.0,13,0.12065990449728306
271,13.603070200013462,0.12,0.25,0.0,13,0.12077225618954487
272,13.663406800013036,0.12,0.36,0.0,13,0.12088300896615647
273,13.711162300023716,0.12,0.25,0.0,13,0.12098892666481512
274,13.772846000036225,0.12,0.25,0.0,13,0.12108635199941481
275,13.82075369998347,0.12,0.25,0.0,13,0.12117123260369789
276,13.868174500006717,0.12,0.25,0.0,13,0.12123916201695589
277,13.91679510002723,0.12,0.25,0.0,13,0.12128543704736255
278,13.961393100034911,0.12,0.25,0.0,13,0.1213051327537433
279,14.008661700005176,0.12,0.25,0.0,13,0.12129319602545008
280,14.05840179999359,0.12,0.25,0.0,13,0.12124455840820425
281,14.12207959999796,0.12,0.25,0.0,13,0.12115426841813315
282,14.16427389997989,0.12,0.25,0.0,13,0.12101764310502577
283,14.211337900022045,0.12,0.25,0.0,13,0.12083043806905894
284,14.27237670001341,0.12,0.25,0.0,13,0.12058903450489222
285,14.320412900007796,0.12,0.25,0.0,13,0.1202906411473928
286,14.366428499983158,0.12,0.25,0.0,13,0.11993350823118992
287,14.414337900001556,0.12,0.25,0.0,13,0.11951714976145711
288,14.47540769999614,0.12,0.25,0.0,13,0.11904256953849629
289,14.52240980003262,0.12,0.25,0.0,13,0.11851248549978682
290,14.57098479999695,0.12,0.25,0.0,13,0.11793154605942124
291,14.616433600021992,0.12,0.25,0.0,13,0.11730653125891632
292,14.664424300019164,0.12,0.25,0.0,13,0.11664653072123732
293,14.712303599982988,0.12,0.25,0.0,13,0.11596308965068924
294,14.759816300007516,0.12,0.25,0.0,13,0.11527031347726382
295,14.820438000024296,0.12,0.25,0.0,13,0.11458492123984315
296,14.8661913999822,0.12,0.25,0.0,13,0.1139262374752236
297,14.914535899995826,0.12,0.25,0.0,13,0.1133161122675872
298,14.96018679998815,0.12,0.25,0.0,13,0.11277875925486058
299,15.006171600020023,0.12,0.25,0.0,13,0.11234050182316915
300,15.068255399994086,0.12,0.25,0.0,13,0.11202941848579243
301,15.116097500023898,0.12,0.25,0.0,13,0.11187487957355552
302,15.161733700020704,0.12,0.25,0.0,13,0.11190696889039231
303,15.207638600026256,0.12,0.25,0.0,13,0.1121557859363429
304,15.256482900003904,0.12,0.25,0.0,13,0.11265062668884454
305,15.316966800019143,0.12,0.25,0.0,13,0.1134190437713336
306,15.365162300004158,0.12,0.25,0.0,13,0.11448579012476034
307,15.41039269999601,0.12,0.25,0.0,13,0.11587165401904018
308,15.45797180000227,0.12,0.36,0.0,13,0.11759219736989329
309,15.50550840003416,0.12,0.25,0.0,13,0.11965641381815267
310,15.551748900034,0.12,0.25,0.0,13,0.12206532782206161
311,15.597264799987896,0.12,0.36,0.0,13,0.12481056102794935
312,15.660584099998232,0.12,0.25,0.0,13,0.1278728973204174
313,15.721622899989596,0.12,0.25,0.0,13,0.1312208830882285
314,15.76717499998631,0.12,0.25,0.0,13,0.13480950423346627
315,15.81385269999737,0.12,0.25,0.0,13,0.13857898613481412
316,15.860434100031853,0.12,0.25,0.0,13,0.1424537669657626
317,15.909172000014223,0.12,0.25,0.0,13,0.14634169826037732
318,15.953854100022,0.12,0.25,0.0,13,0.1501335291904449
319,16.014290200022515,0.12,0.25,0.0,13,0.15370273243086383
320,16.061441000027116,0.12,0.25,0.0,13,0.15690572949604534
321,16.110199799994007,0.12,0.25,0.0,13,0.15958257177262766
322,16.15723060001619,0.12,0.25,0.0,13,0.1615581298947941
323,16.2041924999794,0.12,0.25,0.0,13,0.16264383835378235
324,16.249498300021514,0.12,0.25,0.0,13,0.16264003405959995
325,16.29795610002475,0.12,0.25,0.0,13,0.16133891675595133
326,16.3449879999971,0.12,0.25,0.0,13,0.1585281455313378
327,16.391901800001506,0.12,0.25,0.0,13,0.15399506900848858
328,16.43860080000013,0.12,0.25,0.0,13,0.14753156701417447
329,16.498737299989443,0.12,0.25,0.0,13,0.13893945857016074
330,16.545767400006298,0.12,0.25,0.0,13,0.12803640490575907
331,16.5948174999794,0.12,0.36,0.0,13,0.11466220694843854
332,16.642186400014907,0.12,0.25,0.0,13,0.09868536455797504
333,16.704443700029515,0.12,0.25,0.0,13,0.08000972987700114
334,16.75084460002836,0.12,0.25,0.0,13,0.058581049916158805
335,16.798461800033692,0.12,0.25,0.0,13,0.03439315431279155
336,16.84749890002422,0.12,0.25,0.0,13,0.007493503634517481
337,16.89451990002999,0.12,0.25,0.0,13,-0.022012227723906663
