,time,angle,pressure,set_point,motor_speed,Filtered_angle
0,0.1091805000323802,-0.26,5.59,0.0,33,-0.26003165919299365
1,0.1550544000929221,-0.26,5.48,0.0,33,-0.259043147229362
2,0.2185795000987127,0.51,5.81,0.0,33,0.5081191494379902
3,0.2777480001095682,0.51,5.59,0.0,29,0.5127775418177665
4,0.3242087000980973,0.51,5.7,0.0,29,0.506374466601074
5,0.3869827000889927,0.51,5.7,0.0,29,0.5144082719087028
6,0.4494986000936478,0.51,5.59,0.0,29,0.5048867073586134
7,0.5177596000721678,0.51,5.59,0.0,29,0.5157313399606516
8,0.5737310000695288,0.51,5.59,0.0,29,0.5037444461564695
9,0.6193146000150591,0.51,5.37,0.0,29,0.51668073320443
10,0.6814920000033453,0.51,5.59,0.0,29,0.5029973146816131
11,0.7279131000395864,0.51,5.7,0.0,29,0.5172176692548606
12,0.7740128000732511,0.51,5.48,0.0,29,0.5026780602610262
13,0.8217279000673443,0.51,5.48,0.0,28,0.5173113962926215
14,0.8690891000442207,0.51,5.59,0.0,28,0.5028186591186967
15,0.9150061000837012,0.51,5.59,0.0,28,0.5169263456050048
16,0.9622046001022682,0.51,5.59,0.0,28,0.5034597697811811
17,1.022791900089942,0.51,5.26,0.0,28,0.5160161474433835
18,1.0700007000705227,0.51,5.59,0.0,28,0.5046532278831914
19,1.1181338001042604,0.51,5.48,0.0,28,0.5145245882383043
20,1.1655388000654057,0.51,5.48,0.0,28,0.5064577341497025
21,1.212901800055988,0.51,5.48,0.0,28,0.5123931174942109
22,1.2621128000319004,0.51,5.26,0.0,28,0.5089283783465387
23,1.3102213001111522,0.51,5.48,0.0,28,0.5095739981692844
24,1.3543498000362888,0.51,5.48,0.0,28,0.5121011819087165
25,1.4026770000346005,0.51,5.48,0.0,28,0.5060476278234154
26,1.4496293000411242,0.51,5.26,0.0,28,0.515974435225638
27,1.496865599998273,0.51,5.26,0.0,28,0.501841939054789
28,1.543538000085391,0.51,5.48,0.0,28,0.5204892468719877
29,1.5909678000025451,0.51,5.48,0.0,28,0.49705112876929963
30,1.6372818000381812,0.51,5.48,0.0,28,0.5255123917148202
31,1.6842447000090033,0.51,5.26,0.0,28,0.49185029475799663
32,1.7469153000274673,0.51,5.37,0.0,28,0.5308252058110248
33,1.8070116000017151,0.51,5.37,0.0,28,0.4865019208958194
34,1.852124400087632,0.51,5.15,0.0,28,0.5361228735393158
35,1.898914900026284,0.51,5.48,0.0,28,0.48134961200221615
36,1.9463991000084209,0.51,5.48,0.0,28,0.5410289163626958
37,1.9933856000425292,0.51,5.37,0.0,28,0.4767941117711386
38,2.0401284000836317,0.51,5.7,0.0,28,0.5451299436389019
39,2.103248400031589,0.51,5.48,0.0,28,0.47324652257445093
40,2.149970600032248,-0.31,5.48,0.0,28,-0.27196450916835324
41,2.1961685999995098,-0.31,6.13,0.0,32,-0.34894399970177276
42,2.246794500038959,-0.31,5.37,0.0,32,-0.27054295081525676
43,2.2902092000003904,-0.31,5.59,0.0,32,-0.34956235408250774
44,2.3362439000047743,-0.31,5.37,0.0,32,-0.2707434472976075
45,2.3845457000425085,-0.31,5.59,0.0,32,-0.3485448613062391
46,2.4320206000702456,-0.31,6.24,0.0,32,-0.27255867442308834
47,2.4778957000235096,0.47,5.7,0.0,28,0.4340305208413745
48,2.5248657000483945,0.47,5.81,0.0,28,0.5041626571974731
49,2.571456100093201,0.47,5.7,0.0,28,0.43793697839657814
50,2.6327442000620067,0.47,5.7,0.0,28,0.49971927602672683
51,2.68097410001792,0.47,5.59,0.0,28,0.4428160296908145
52,2.7408543000929058,0.47,5.59,0.0,28,0.4945111044378506
53,2.7875915000913665,0.47,5.59,0.0,28,0.4482458176979609
54,2.833936500013806,0.47,5.59,0.0,28,0.48896467730594434
55,2.8830496000591666,0.47,5.48,0.0,28,0.45380913020738034
56,2.929030800005421,0.47,5.59,0.0,28,0.48347701493461986
57,2.9894543000264093,0.47,5.59,0.0,28,0.459137200784417
58,3.034837700077333,0.47,5.48,0.0,28,0.4783830438206735
59,3.081162000074982,0.47,5.48,0.0,28,0.46393238588580704
60,3.142810800112784,0.47,5.59,0.0,28,0.47394149584310535
61,3.1882627001032238,0.47,5.59,0.0,28,0.4679749993058813
62,3.23504870000761,0.47,5.59,0.0,28,0.47033406627579516
63,3.282342000049539,0.47,5.37,0.0,28,0.47111938157672834
64,3.349869900033809,0.47,5.59,0.0,28,0.4676729668614816
65,3.3883335000136867,0.47,5.48,0.0,28,0.47328379135244747
66,3.43438300001435,0.47,5.48,0.0,28,0.4660126173836149
67,3.4817847000667825,0.47,5.48,0.0,28,0.47443800010723325
68,3.5301419000606984,0.47,5.48,0.0,28,0.46536200583432985
69,3.5814357000635937,0.47,5.48,0.0,28,0.47459162044345204
70,3.622948000091128,0.47,5.48,0.0,28,0.46569514730743733
71,3.669049800024368,0.47,5.48,0.0,28,0.4737852632858121
72,3.716249500052072,0.47,6.02,0.0,28,0.4669580291685843
73,3.777780400007032,0.47,5.48,0.0,28,0.47208565060647834
74,3.8251371000660574,0.47,5.48,0.0,27,0.4690713999887202
75,3.886578500038013,0.47,5.48,0.0,27,0.4695848478619792
76,3.9338914999971166,0.47,5.48,0.0,27,0.4719297068818221
77,3.9772012000903487,0.47,5.48,0.0,27,0.46640285560879763
78,4.0258649000898,0.47,5.48,0.0,27,0.47539738149832766
79,4.071960200089961,0.47,5.37,0.0,27,0.4626919396876202
80,4.118943100096658,0.47,5.37,0.0,27,0.47930449305074674
81,4.1651290000882,0.47,5.37,0.0,27,0.45864030979088133
82,4.215748900081962,0.47,5.37,0.0,27,0.48344450084743357
83,4.260203500045463,0.47,5.15,0.0,27,0.4544721049531224
84,4.305502900038846,0.47,5.37,0.0,27,0.48757741946259553
85,4.352380000054836,0.47,5.37,0.0,27,0.45044014267377663
86,4.399886400089599,0.47,5.37,0.0,27,0.49144212421514244
87,4.446485200081952,0.47,5.37,0.0,27,0.4468075696177754
88,4.5083488000091165,0.47,5.04,0.0,27,0.49478173942181447
89,4.554173200041987,0.47,5.37,0.0,27,0.44381444846012585
90,4.601599600049667,-0.34,5.37,0.0,27,-0.31261415476034266
91,4.649843699997291,-0.34,5.37,0.0,31,-0.3683724313920968
92,4.711892700055614,-0.34,5.15,0.0,31,-0.31085722157078055
93,4.758937900071032,-0.34,5.26,0.0,31,-0.3697003267984796
94,4.806778700090945,-0.34,5.48,0.0,31,-0.30994772994143294
95,4.853608400095254,-0.34,6.13,0.0,31,-0.3702075842932236
96,4.900379600003362,-0.34,5.48,0.0,31,-0.3098244931190922
97,4.948197100078687,-0.34,5.48,0.0,31,-0.36996447007086464
98,4.995625300100073,-0.34,5.48,0.0,31,-0.31041850816998545
99,5.05783450009767,-0.34,5.7,0.0,31,-0.3690320235672559
100,5.118472300004214,-0.34,5.48,0.0,31,-0.3116797483947452
101,5.166447100113146,-0.34,5.7,0.0,31,-0.3674498466382549
102,5.212628700071946,-0.34,5.7,0.0,31,-0.31357484713076356
103,5.25663820002228,0.35,5.81,0.0,31,0.3247473579193807
104,5.306143500027247,0.42,6.46,0.0,31,0.44394198022449316
105,5.352715300046839,0.42,5.81,0.0,28,0.3974940622683627
106,5.398816500091925,0.42,5.81,0.0,28,0.44095920898846963
107,5.4601454000221565,0.42,5.59,0.0,28,0.40068305897834505
108,5.506992500042543,0.42,5.81,0.0,28,0.4375935224070322
109,5.553242000052705,0.42,5.7,0.0,27,0.4041982935220251
110,5.600207300041802,0.42,5.7,0.0,27,0.4339520273842077
111,5.647127800039016,0.42,5.7,0.0,27,0.40794751706564336
112,5.694608400110155,0.42,5.7,0.0,27,0.43010845709073775
113,5.7413267000811175,0.42,5.7,0.0,27,0.41187714592336117
114,5.789312000037171,0.42,5.59,0.0,27,0.4260964152687542
115,5.835024300031364,0.42,6.02,0.0,27,0.41597181065681493
116,5.89847340004053,0.42,5.7,0.0,27,0.4219161254868534
117,5.945338200079277,0.42,5.59,0.0,27,0.4202422411538229
118,5.993908300064504,0.42,5.59,0.0,27,0.41755095673705245
119,6.039138699998148,0.42,5.59,0.0,27,0.4247053065310581
120,6.085611800081097,0.42,5.48,0.0,27,0.412989820935532
121,6.147701700101607,0.42,5.48,0.0,27,0.4293601985995778
122,6.194200300029479,0.42,5.48,0.0,27,0.40825136817537816
123,6.240899900090881,0.42,5.37,0.0,27,0.43416492082101354
124,6.288046000059694,0.42,5.37,0.0,27,0.4034057277139324
125,6.3357987001072615,0.42,5.37,0.0,27,0.4390174257398655
126,6.382351700100116,0.42,5.37,0.0,27,0.39858936270511386
127,6.429889800027013,0.42,5.26,0.0,27,0.4437459157153297
128,6.47652620007284,0.42,5.26,0.0,27,0.394008452651608
129,6.535890600061975,0.42,5.26,0.0,27,0.44811294600674745
130,6.596883200109005,0.42,5.26,0.0,27,0.38992613704110385
131,6.6435048000421375,0.42,5.15,0.0,27,0.4518379907889017
132,6.691953600035049,0.42,5.15,0.0,27,0.38662900702018355
133,6.737506900099106,-0.34,5.15,0.0,27,-0.30535719196540195
134,6.783947200048715,-0.34,5.15,0.0,31,-0.37562953217766576
135,6.830973000032827,-0.34,5.04,0.0,31,-0.3036859993876222
136,6.878028700011782,-0.34,5.15,0.0,31,-0.3766850864057701
137,6.940102400025353,-0.34,5.04,0.0,31,-0.30326336518890057
138,6.987161400029436,-0.34,5.15,0.0,31,-0.3764667657093596
139,7.0345640000887215,-0.34,5.26,0.0,31,-0.3041222696584239
140,7.082190700108185,-0.34,5.26,0.0,31,-0.3749763230939967
141,7.127871000091545,-0.34,5.48,0.0,31,-0.3062251557412602
142,7.175394000019878,0.46,5.48,0.0,27,0.4277075852138097
143,7.222434800001793,0.47,5.48,0.0,27,0.5005558714179563
144,7.269710300024599,0.47,5.48,0.0,27,0.44140071687450255
145,7.317394100013189,0.47,5.37,0.0,27,0.496462078495301
146,7.364519000053406,0.47,5.37,0.0,27,0.44581329143807374
147,7.411651300033554,0.47,5.37,0.0,27,0.4918165643162541
148,7.457787799998186,0.47,5.37,0.0,27,0.4506057025359928
149,7.504945800057612,0.47,5.48,0.0,27,0.48696050794350254
150,7.566166400094517,0.47,5.37,0.0,27,0.4554472373608208
151,7.611578600015491,0.47,5.37,0.0,27,0.482204908912265
152,7.658004300086759,0.47,5.37,0.0,27,0.46005335363903455
153,7.704506400041282,0.47,5.15,0.0,27,0.4778033205769408
154,7.750094500021078,0.47,5.37,0.0,27,0.4642040964709604
155,7.811699200072326,0.47,5.37,0.0,27,0.47394112651864784
156,7.858736400026828,0.47,5.37,0.0,27,0.46774826665041086
157,7.906232200097293,0.47,5.26,0.0,27,0.47073682337442946
158,7.954057800001465,0.47,5.15,0.0,27,0.4705977436447526
159,7.999650600017048,0.47,5.37,0.0,27,0.4682510935507523
160,8.06172510003671,0.47,5.26,0.0,27,0.47271594794157745
161,8.10943410010077,0.47,5.26,0.0,26,0.4664999521511696
162,8.155678900075145,0.47,5.26,0.0,26,0.47410385988941095
163,8.20233310002368,0.47,5.04,0.0,26,0.46546887183733743
164,8.24859730002936,0.47,5.26,0.0,26,0.4747863547154783
165,8.294656800106168,0.47,5.15,0.0,26,0.4651254724892887
166,8.358319899998605,0.47,5.15,0.0,26,0.4748009153460421
167,8.406077100080438,0.47,5.26,0.0,26,0.4654290663387803
168,8.450636000023223,0.47,5.15,0.0,26,0.4741900826343555
169,8.498248800053261,0.47,5.15,0.0,26,0.4663360434906546
170,8.543828400084749,0.47,5.04,0.0,26,0.47299832071951076
171,8.590046800090931,0.47,5.04,0.0,26,0.4678007489206595
172,8.651927200029604,0.47,5.15,0.0,26,0.471273327108924
173,8.6981735000154,0.47,5.15,0.0,26,0.4697721305623549
174,8.747108100098558,0.47,5.15,0.0,26,0.4690712092102459
175,8.793797500082292,0.47,5.15,0.0,26,0.4721870245023334
176,8.837958100019023,0.47,4.93,0.0,26,0.4664643849087095
177,8.898606300004758,0.47,5.15,0.0,26,0.47496148407781674
178,8.947525100084022,0.47,5.15,0.0,26,0.4635505489324569
179,8.992643700097688,0.47,5.15,0.0,26,0.4779820483516819
180,9.039652200066485,0.47,5.04,0.0,26,0.46046058833355263
181,9.085603900020942,0.47,5.15,0.0,26,0.48109926954086857
182,9.15092360007111,0.47,5.15,0.0,26,0.4573629456851782
183,9.209616300067864,0.47,5.15,0.0,26,0.4841261582586419
184,9.2546113000717,0.47,4.93,0.0,26,0.454461641762157
185,9.317157600075006,0.47,5.15,0.0,26,0.4868444320079809
186,9.36540030001197,0.47,5.15,0.0,26,0.4519850115335365
187,9.411498800036496,0.47,5.15,0.0,26,0.48902153300772583
188,9.459002100047655,0.47,5.04,0.0,26,0.45016221248707244
189,9.505223600077445,0.47,5.26,0.0,26,0.4904412824552632
190,9.551619400037453,0.47,5.04,0.0,26,0.4491847638663248
191,9.599915100028738,-0.29,5.04,0.0,26,-0.26904944740235925
192,9.64635320007801,-0.29,4.93,0.0,30,-0.3108472248541164
193,9.69421250000596,-0.29,5.26,0.0,30,-0.2694857540576401
194,9.741920900065452,-0.29,4.93,0.0,30,-0.30996802993425265
195,9.789113700040616,-0.29,5.26,0.0,30,-0.270769755611475
196,9.8830111999996,-0.29,5.26,0.0,30,-0.3083257717772547
197,9.928994100075217,-0.29,5.37,0.0,30,-0.27271902758076677
198,9.991508300066926,-0.29,5.37,0.0,30,-0.30612223797848626
199,10.051929000066592,-0.29,5.48,0.0,30,-0.2751251779311271
200,10.102618500008248,-0.29,5.26,0.0,30,-0.30356193237267937
201,10.146943800034933,-0.29,5.48,0.0,30,-0.27779593306388384
202,10.20897550007794,-0.29,5.59,0.0,30,-0.30081857593327355
203,10.25537680007983,-0.29,5.48,0.0,30,-0.2805805708359217
204,10.301923800026998,-0.29,5.37,0.0,30,-0.29801716883245777
205,10.34884140000213,-0.29,5.59,0.0,30,-0.2833809733072495
206,10.395218100049531,-0.29,5.37,0.0,30,-0.29522918440608925
207,10.4589337001089,-0.29,5.7,0.0,30,-0.28615084413621983
208,10.518404800095595,-0.29,5.48,0.0,30,-0.29247827026288814
209,10.56480510008987,-0.29,5.7,0.0,30,-0.28888576518467285
210,10.61454040009994,-0.29,5.48,0.0,30,-0.28975375609630993
211,10.663335400051436,-0.29,5.81,0.0,30,-0.2916068008412669
212,10.724598000058904,-0.29,5.81,0.0,30,-0.2870292636329417
213,10.77202970010694,-0.29,5.59,0.0,30,-0.29434034391843134
214,10.819164200103842,-0.29,5.7,0.0,30,-0.2842837378817549
215,10.86567600001581,-0.29,5.59,0.0,30,-0.29709687213290564
216,10.91393570008222,-0.29,5.81,0.0,30,-0.2815222388941252
217,10.961934600025415,-0.29,5.59,0.0,30,-0.29985127257221866
218,11.007578700082377,-0.29,5.81,0.0,30,-0.2787938352004773
219,11.06898970005568,-0.29,5.81,0.0,30,-0.30252739796804606
220,11.115350100095384,-0.29,5.59,0.0,30,-0.27620392904973423
221,11.162382600014098,-0.29,5.91,0.0,30,-0.30498952812389096
222,11.224283500108868,-0.29,5.81,0.0,30,-0.2739183439030285
223,11.2710795000894,-0.29,5.81,0.0,30,-0.30704338938207754
224,11.316957600065509,-0.29,5.91,0.0,30,-0.2721565571262284
225,11.36511870007962,-0.29,5.59,0.0,30,-0.30844928740950395
226,11.427178800106049,-0.29,5.91,0.0,30,-0.27117161731366046
227,11.47273970011156,-0.29,5.91,0.0,30,-0.3089496793335662
228,11.51989280001726,-0.29,6.46,0.0,30,-0.27121460101173855
229,11.566969400038944,-0.29,5.91,0.0,30,-0.308313097790183
230,11.613669000100344,-0.29,5.91,0.0,30,-0.27248198517024436
231,11.660448600072414,0.47,6.35,0.0,30,0.45360447779896124
232,11.70703940000385,0.47,5.91,0.0,26,0.4849529469139037
233,11.800084700109435,0.47,5.91,0.0,26,0.4567901504759327
234,11.848698600078931,0.47,5.81,0.0,26,0.481196742493971
235,11.896508300094863,0.47,5.91,0.0,26,0.46104687043358084
236,11.941542500047944,0.47,5.81,0.0,26,0.4765255623850254
237,11.988083100062797,0.47,5.81,0.0,26,0.4660341352093588
238,12.03649170009885,0.47,5.59,0.0,26,0.47132949119780393
239,12.083850700058974,0.47,5.81,0.0,26,0.4713260172818859
240,12.129241700051352,0.47,5.7,0.0,26,0.46605748272962527
241,12.19206390006002,0.47,5.7,0.0,26,0.4764627275508009
242,12.253821899998002,0.47,5.7,0.0,26,0.4611682867806733
243,12.315072100027464,0.47,5.59,0.0,26,0.4809984287049255
244,12.3793342000572,0.47,5.59,0.0,26,0.45708264263658005
245,12.429434500052594,0.47,5.59,0.0,26,0.48455028309679826
246,12.488346200087108,0.47,5.48,0.0,26,0.4541317735639242
247,12.534658999997191,-0.28,5.48,0.0,26,-0.2631466043827914
248,12.582384600071236,-0.29,5.48,0.0,26,-0.30750046663952774
249,12.630171600030735,-0.29,5.37,0.0,30,-0.27218366946362027
250,12.692369800060987,-0.29,5.37,0.0,30,-0.3078183346610298
251,12.75119880004786,-0.29,5.37,0.0,30,-0.27246808097746117
252,12.79913280007895,-0.29,5.26,0.0,30,-0.3069883536810824
253,12.846046900027432,-0.29,5.26,0.0,30,-0.27377725376432605
254,12.895243100007065,-0.29,5.26,0.0,30,-0.305272313023025
255,12.942052100086585,-0.29,5.26,0.0,30,-0.27582509384372217
256,12.988224300090224,-0.29,5.26,0.0,30,-0.3029677851802062
257,13.03321520006284,-0.29,5.15,0.0,30,-0.2783133806834791
258,13.097089700051583,-0.29,5.15,0.0,30,-0.30036470403157
259,13.162008900078945,-0.29,5.15,0.0,30,-0.28096762602738445
260,13.221688800025731,-0.29,5.04,0.0,30,-0.29771659316624194
261,13.26921670010779,-0.29,5.04,0.0,30,-0.2835592972805464
262,13.332056000013836,-0.29,5.04,0.0,30,-0.29522430606762406
263,13.394319000071846,-0.29,4.93,0.0,30,-0.2859167279757798
264,13.458283300045878,-0.29,4.93,0.0,30,-0.29302983645159386
265,13.502748600090854,-0.29,4.93,0.0,30,-0.28792721576537034
266,13.594948600046337,-0.29,4.93,0.0,30,-0.2912176943439706
267,13.64121640007943,-0.29,4.82,0.0,30,-0.2895327679313957
268,13.687119100010024,-0.29,4.82,0.0,30,-0.2898214739269933
269,13.733591100084595,-0.29,4.72,0.0,30,-0.29072174771651216
270,13.794096400029956,-0.29,4.72,0.0,30,-0.28883350825850346
271,13.844628400052898,-0.29,4.72,0.0,30,-0.2915183569122308
272,13.890045100008138,-0.29,4.72,0.0,30,-0.2882158596237868
273,13.948395000072196,-0.29,4.72,0.0,30,-0.2919715128472505
274,14.011666900012642,-0.29,4.61,0.0,30,-0.28791128409898836
275,14.059897700091824,-0.29,4.61,0.0,30,-0.29214428551183724
276,14.104357600095682,-0.29,4.5,0.0,30,-0.2878531952263304
277,14.153106300043872,-0.29,4.5,0.0,30,-0.29210468768423825
278,14.198308100108989,-0.29,4.5,0.0,30,-0.2879740050650843
279,14.247143500018865,-0.29,4.5,0.0,30,-0.29191828184000135
280,14.311690000002272,-0.29,4.5,0.0,30,-0.28821152214358825
281,14.35851370007731,-0.29,4.5,0.0,30,-0.2916427965828132
282,14.405005000066012,-0.29,4.39,0.0,30,-0.2885133253211656
283,14.45088790007867,-0.29,4.39,0.0,30,-0.2913247378009375
284,14.49864530004561,-0.29,4.39,0.0,30,-0.28883920859871953
285,14.559854699997231,-0.29,4.39,0.0,30,-0.29099783406793045
286,14.607609900063837,-0.29,4.28,0.0,30,-0.2891619090129334
287,14.651625500060618,-0.29,4.28,0.0,30,-0.2906830650680964
288,14.713972600060517,-0.29,4.28,0.0,30,-0.2894663967211117
289,14.775782200042158,-0.29,4.28,0.0,30,-0.29038997577900216
290,14.842793800053188,-0.29,4.17,0.0,30,-0.2897480344968948
291,14.885249800048769,-0.29,4.17,0.0,30,-0.29011896592482456
292,14.933076600078492,-0.29,4.17,0.0,30,-0.2900099151855097
293,14.98158870008774,-0.29,4.17,0.0,30,-0.2898642518852197
294,15.046933500096202,-0.29,4.06,0.0,30,-0.29025967170523903
295,15.10837310005445,-0.29,4.06,0.0,31,-0.2896172160311132
296,15.1848473000573,-0.29,4.06,0.0,31,-0.290506034744476
297,15.232953500002624,-0.29,3.95,0.0,31,-0.2893698777059588
298,15.295257000019774,-0.29,3.95,0.0,31,-0.29075539572184306
299,15.345629800111055,-0.29,3.95,0.0,31,-0.2891182349021334
300,15.408539100084454,-0.29,3.95,0.0,31,-0.29100862117677684
301,15.4533087000018,-0.29,3.95,0.0,31,-0.28886523338370557
302,15.5024367000442,-0.29,3.84,0.0,31,-0.29125836060972576
303,15.551381900091656,-0.29,3.84,0.0,31,-0.28862312115188005
304,15.597131100017576,-0.29,3.84,0.0,31,-0.29148709070941464
305,15.661897900048643,-0.29,3.74,0.0,31,-0.2884149444746106
306,15.705805900041014,-0.29,3.74,0.0,31,-0.29166613969204214
307,15.7544651000062,-0.29,3.74,0.0,31,-0.2882749437453567
308,15.801501200068742,-0.29,3.74,0.0,31,-0.29175592840461795
309,15.848019000026396,-0.29,3.84,0.0,31,-0.2882476219386989
310,15.894808700075371,-0.29,4.39,0.0,31,-0.2917076403678106
311,15.94252750009764,-0.29,3.74,0.0,31,-0.28838529550186465
312,16.00500160001684,-0.29,4.06,0.0,31,-0.29146648064468056
313,16.052237500087358,-0.29,4.06,0.0,31,-0.2887440075736115
314,16.09885240008589,-0.29,4.28,0.0,31,-0.2909765932237027
315,16.14521000010427,-0.29,4.72,0.0,31,-0.28937779589283597
316,16.192272200016305,-0.29,4.82,0.0,31,-0.2901875700833019
317,16.238725800067186,-0.29,4.28,0.0,31,-0.29033146966001355
318,16.28509690007195,-0.29,4.61,0.0,31,-0.2890622970423593
319,16.33156400010921,-0.29,5.26,0.0,31,-0.29163226397742875
320,16.37973490008153,-0.29,4.5,0.0,31,-0.2875856414385347
321,16.44161000009626,-0.29,4.61,0.0,31,-0.29328100483032854
322,16.487510800012387,-0.29,4.82,0.0,31,-0.28577320039625226
323,16.534351200098172,-0.29,5.48,0.0,31,-0.29524372249743575
324,16.581480900058523,-0.29,4.72,0.0,31,-0.28367900918574374
325,16.627742600045167,-0.29,4.93,0.0,31,-0.29744497952189863
326,16.690701800049283,-0.29,5.7,0.0,31,-0.28140077834033383
327,16.736082500079647,-0.29,4.93,0.0,31,-0.29976450540254695
328,16.782724400050938,-0.29,5.04,0.0,31,-0.2790809153108533
329,16.830858600093052,-0.29,5.15,0.0,31,-0.30203902074917865
330,16.878841100027785,-0.29,5.04,0.0,31,-0.27690132799439404
331,16.924597000004724,-0.29,5.37,0.0,31,-0.3040713496391402
332,17.00361040001735,-0.29,5.15,0.0,31,-0.27506984444301724
333,17.051165500073694,-0.29,5.81,0.0,31,-0.3056490185794303
334,17.098099500057288,-0.29,5.37,0.0,31,-0.27379605666658835
335,17.145727900089696,-0.29,6.13,0.0,31,-0.3065744846202463
