,time,angle,pressure,set_point,motor_speed,Filtered_angle
0,0.0481612000148743,-0.22,7.0,0.0,39,-0.19717505655306933
1,0.0929402000037953,-1.0,7.0,0.0,39,-0.353375626389618
2,0.1407906000968068,-1.01,7.0,0.0,44,-0.5033973826327657
3,0.1886677000438794,-1.01,7.33,0.0,44,-0.6419322672774863
4,0.2352542000589892,-1.01,7.44,0.0,44,-0.7655220808177023
5,0.2817889000289142,-1.01,7.44,0.0,44,-0.872789990919352
6,0.3284668000414967,-1.01,7.44,0.0,44,-0.9643026604977185
7,0.3741138000041246,-1.01,7.55,0.0,45,-1.042173531365474
8,0.421242400072515,-1.01,7.44,0.0,45,-1.1095158354763974
9,0.4840479000704363,-1.01,7.44,0.0,45,-1.169839289307205
10,0.5292840000474826,-1.01,7.0,0.0,45,-1.2264713911614513
11,0.5763739000540227,-1.01,7.55,0.0,45,-1.282073908980177
12,0.6235813000239432,-1.01,7.55,0.0,45,-1.3383179348683425
13,0.6714640000136569,-1.01,7.55,0.0,45,-1.3957766786582173
14,0.7171035000355914,-1.8,7.55,0.0,45,-1.4540809519596312
15,0.7949953000061214,-1.8,7.88,0.0,50,-1.512319804014714
16,0.8416832000948489,-1.8,8.2,0.0,50,-1.5695570892759756
17,0.8918228000402451,-1.8,7.33,0.0,50,-1.6252728562183774
18,0.951697700074874,-1.8,7.66,0.0,50,-1.6796007035796598
19,0.9971214000834152,-1.8,7.88,0.0,50,-1.7333437560350229
20,1.0457563000964,-1.8,7.99,0.0,50,-1.7878131834816942
21,1.0902993000345305,-1.8,8.31,0.0,50,-1.8445447307924496
22,1.138829700066708,-1.8,8.2,0.0,50,-1.9049484959226992
23,1.18476340000052,-1.8,7.77,0.0,51,-1.969948085657359
24,1.2477411000290886,-1.8,7.55,0.0,51,-2.039667466543675
25,1.3084973000222817,-1.8,7.77,0.0,51,-2.1132271790954666
26,1.3566548000089824,-1.8,8.2,0.0,51,-2.188715641433318
27,1.4037016000365838,-2.59,7.77,0.0,51,-2.2633928386616047
28,1.4647490000352263,-2.59,7.44,0.0,51,-2.3341244800968894
29,1.5090462000807747,-2.59,8.09,0.0,56,-2.3979338300439905
30,1.5556448000716043,-2.59,7.55,0.0,56,-2.4524949655908483
31,1.6018323000753298,-2.59,8.2,0.0,56,-2.496449692996137
32,1.6512035001069307,-2.59,7.66,0.0,56,-2.529536061214929
33,1.6968509000726044,-2.59,8.75,0.0,56,-2.5525701211029883
34,1.7443299000151455,-2.59,8.2,0.0,56,-2.5673251369954944
35,1.7915996999945492,-2.59,8.53,0.0,57,-2.5763422741848765
36,1.838463900028728,-2.59,7.99,0.0,57,-2.5826973420478687
37,1.88688580004964,-2.59,8.75,0.0,57,-2.5897403815796474
38,1.9319010000908747,-2.59,8.42,0.0,57,-2.600819488939445
39,1.9790682001039384,-2.59,7.77,0.0,57,-2.6189977818631913
40,2.026074900059029,-2.59,8.31,0.0,57,-2.6467731081023462
41,2.0728428000584245,-2.59,7.55,0.0,57,-2.68581395737438
42,2.119665300007909,-2.59,8.64,0.0,57,-2.7367317855474353
43,2.181463100016117,-2.59,7.99,0.0,57,-2.798919034378354
44,2.227975300047546,-2.59,7.88,0.0,58,-2.870492723467018
45,2.274975700071081,-2.59,8.53,0.0,58,-2.9483945870183588
46,2.3214160000206903,-3.38,8.09,0.0,58,-3.0286967057898573
47,2.368605300085619,-3.38,7.55,0.0,58,-3.1071078602235525
48,2.413768600090407,-3.38,8.31,0.0,63,-3.1795693623307604
49,2.458848400041461,-3.38,7.88,0.0,63,-3.242768934488316
50,2.521063100080937,-3.38,7.66,0.0,63,-3.2944618096010565
51,2.568052800022997,-3.38,7.77,0.0,63,-3.333594986064955
52,2.6153635000810027,-3.38,8.42,0.0,64,-3.3602843411129446
53,2.6607399000786245,-3.38,8.42,0.0,64,-3.375696027003165
54,2.707348500029184,-3.38,7.66,0.0,64,-3.3818717526879984
55,2.753907900070772,-3.38,8.2,0.0,64,-3.381525766485445
56,2.801673100097105,-3.38,8.75,0.0,64,-3.3778306192299
57,2.8482119000982493,-3.38,7.99,0.0,64,-3.3741999635284436
58,2.893872800050304,-3.38,8.53,0.0,65,-3.374070402402851
59,2.942091800039634,-3.38,8.42,0.0,65,-3.3806811993636643
60,2.987901300075464,-3.38,7.66,0.0,65,-3.3968507441056555
61,3.04907850001473,-3.38,8.2,0.0,65,-3.424752055116378
62,3.109355500084348,-3.38,7.44,0.0,65,-3.4656960913570267
63,3.156763000064529,-3.38,7.55,0.0,65,-3.5199408150872395
64,3.2039882000535727,-3.38,7.99,0.0,66,-3.5865551524812465
65,3.2980454000644386,-3.38,8.31,0.0,66,-3.663379388595379
66,3.342861300101504,-3.38,7.44,0.0,66,-3.7471360885711027
67,3.3901072000153363,-4.21,7.99,0.0,66,-3.83374412915242
68,3.436855200096033,-4.22,8.64,0.0,72,-3.918832260213003
69,3.48428200010676,-4.22,8.75,0.0,72,-3.998336335439766
70,3.531415600096807,-4.22,8.42,0.0,72,-4.069000093956432
71,3.5925198000622918,-4.22,8.64,0.0,72,-4.128662777567554
72,3.63861700007692,-4.22,8.09,0.0,72,-4.176330511782468
73,3.6859915000386536,-4.22,8.64,0.0,72,-4.212087170474789
74,3.733835400082171,-4.22,8.09,0.0,73,-4.236904075138879
75,3.7809209000552073,-4.22,8.31,0.0,73,-4.252396716242527
76,3.826414000010118,-4.22,8.64,0.0,73,-4.260565312518281
77,3.873654600000009,-4.22,8.97,0.0,73,-4.263545456362366
78,3.9204108000267297,-4.22,8.31,0.0,74,-4.263385966392512
79,3.981275000027381,-4.22,8.53,0.0,74,-4.261863776269269
80,4.0281640000175685,-4.22,8.2,0.0,74,-4.26034038811595
81,4.074923900072463,-4.22,8.42,0.0,74,-4.259661048670155
82,4.12215800001286,-4.22,8.09,0.0,75,-4.260096122829233
83,4.16972090001218,-4.22,8.31,0.0,75,-4.261323754845293
84,4.216305200010538,-4.22,8.53,0.0,75,-4.262453332397965
85,4.263076000032015,-4.22,8.86,0.0,75,-4.262089953672331
86,4.310135000036098,-4.22,8.97,0.0,75,-4.2584404751068945
87,4.357617200003006,-4.22,8.64,0.0,75,-4.249461244163348
88,4.402599500026554,-4.22,8.75,0.0,75,-4.2330458192269065
89,4.451150700100698,-4.22,8.97,0.0,76,-4.20724747646396
90,4.5111739001004025,-4.22,9.29,0.0,76,-4.170525877683401
91,4.557574000093155,-4.22,9.62,0.0,76,-4.121999885863518
92,4.604371000081301,-4.22,10.38,0.0,76,-4.061679344293437
93,4.651759900036268,-4.22,10.6,0.0,77,-3.9906380947401545
94,4.702767600072548,-4.22,10.93,0.0,77,-3.911079247760985
95,4.747562100063078,-4.22,10.17,0.0,77,-3.8262325877587107
96,4.8083027000539005,-3.34,10.82,0.0,77,-3.74002787985016
97,4.856759799993597,-3.33,9.84,0.0,72,-3.656549593403805
98,4.9047589000547305,-3.33,9.84,0.0,72,-3.579399520953217
99,4.949999600066803,-3.33,10.38,0.0,72,-3.511163379645789
100,4.9959156000986695,-3.33,11.15,0.0,72,-3.4531112202587404
101,5.045870100031607,-3.33,9.84,0.0,73,-3.405141319473054
102,5.090343700023368,-3.33,10.27,0.0,73,-3.3659144055186654
103,5.137010700069368,-3.33,10.27,0.0,73,-3.3331196717431943
104,5.182708200067282,-3.33,10.49,0.0,73,-3.303823148389039
105,5.22872280003503,-3.33,11.26,0.0,73,-3.2748571155641857
106,5.295392900006846,-3.33,11.69,0.0,73,-3.2432152745726035
107,5.337432700092904,-3.33,10.71,0.0,73,-3.2064217530739723
108,5.384349500061944,-3.33,11.36,0.0,74,-3.1628424708052827
109,5.429743200074881,-3.33,12.13,0.0,74,-3.111905080164888
110,5.477091000066139,-3.33,10.71,0.0,74,-3.0541891116228443
111,5.523416800075211,-3.33,11.04,0.0,74,-2.9913418780196186
112,5.570577000034973,-2.56,10.93,0.0,70,-2.9257812530384046
113,5.632515500066802,-2.56,11.69,0.0,70,-2.860201136767353
114,5.696868600090966,-2.56,11.69,0.0,70,-2.7970001829829068
115,5.740608000080101,-2.56,11.15,0.0,70,-2.7378125934713076
116,5.787471100105904,-2.56,12.13,0.0,70,-2.6832587831489967
117,5.834658100036904,-2.56,11.15,0.0,70,-2.6329261864067153
118,5.880455800099298,-2.56,11.69,0.0,70,-2.585533027839498
119,5.925785000086762,-2.56,11.58,0.0,70,-2.539219658585095
120,5.988214600016363,-2.56,11.36,0.0,71,-2.49191568982501
121,6.03622670006007,-2.56,11.47,0.0,71,-2.4417337012737095
122,6.083007600042038,-2.56,11.69,0.0,71,-2.3873412387688266
123,6.143875600071624,-2.56,11.8,0.0,71,-2.3282619487765484
124,6.190625800052658,-2.56,12.02,0.0,71,-2.2650541969844227
125,6.240556400036439,-2.56,13.22,0.0,71,-2.1993118896959003
126,6.285038400092162,-1.82,13.33,0.0,71,-2.133439913790051
127,6.332169100060128,-1.81,11.91,0.0,71,-2.07021174928178
128,6.378254100098275,-1.81,13.11,0.0,67,-2.0122207475012353
129,6.427067400072701,-1.81,11.91,0.0,67,-1.9613965263555015
130,6.473382900003344,-1.81,12.78,0.0,67,-1.9187028608874248
131,6.517822800087743,-1.81,12.46,0.0,67,-1.8840323435730055
132,6.564423400093801,-1.81,13.33,0.0,67,-1.8562598047066043
133,6.623612500028685,-1.81,12.13,0.0,67,-1.8334114449111416
134,6.671496600029059,-1.81,12.89,0.0,68,-1.812913830664987
135,6.717411900055595,-1.81,12.13,0.0,68,-1.791893245034322
136,6.764321300084703,-1.81,12.24,0.0,68,-1.7675004159995444
137,6.811386200017296,-1.81,13.76,0.0,68,-1.7372377970548851
138,6.8587868000613526,-1.81,12.56,0.0,68,-1.6992660653948506
139,6.907562700100243,-1.81,12.46,0.0,68,-1.6526633585142563
140,6.954118199995719,-1.81,12.35,0.0,68,-1.5976053294547559
141,7.001776900026016,-1.81,13.65,0.0,68,-1.535426992408117
142,7.04743470007088,-1.81,12.56,0.0,68,-1.4685194195239908
143,7.09417390008457,-1.05,13.98,0.0,64,-1.4000186519775422
144,7.141217000083998,-1.05,13.11,0.0,64,-1.3332977435338838
145,7.18835539999418,-1.05,12.67,0.0,64,-1.2713765826621932
146,7.235419400036335,-1.05,13.76,0.0,64,-1.2164226817839887
147,7.295763700036332,-1.05,13.11,0.0,64,-1.1694576819431408
148,7.342237900011241,-1.05,12.78,0.0,64,-1.1302805848981359
149,7.389591500046663,-1.05,12.89,0.0,64,-1.0975649484652183
150,7.435364300035872,-1.05,12.78,0.0,64,-1.0690824612166623
151,7.484425900038332,-1.05,13.11,0.0,64,-1.042012352107219
152,7.530017500044778,-1.05,13.76,0.0,64,-1.01330195166244
153,7.576533500105143,-1.05,13.11,0.0,64,-0.9800475589835905
154,7.624757100013085,-1.05,13.0,0.0,64,-0.9398660239142577
155,7.67054730001837,-1.05,14.09,0.0,64,-0.8912259076046165
156,7.733386100037023,-1.05,13.33,0.0,64,-0.8337028805792396
157,7.778282400104217,-1.05,14.2,0.0,65,-0.7681176497640113
158,7.825121900066733,-1.05,13.33,0.0,65,-0.696506976649067
159,7.871557400096208,-0.29,13.0,0.0,60,-0.6218822835546891
160,7.933496600016952,-0.29,13.0,0.0,60,-0.5477830688862971
161,7.978388900053687,-0.29,13.54,0.0,60,-0.4777349429594305
162,8.024608300067484,-0.29,13.54,0.0,60,-0.414779421068541
163,8.072444400051609,-0.29,13.44,0.0,60,-0.3611831562885988
164,8.119457600056194,-0.29,13.44,0.0,60,-0.3183300759068904
165,8.167331900098361,-0.29,13.65,0.0,60,-0.2867465105719071
166,8.213618500041775,-0.29,13.33,0.0,60,-0.2662062198359535
167,8.259799999999814,-0.29,13.22,0.0,60,-0.2558724371918406
168,8.307200900046155,-0.29,13.22,0.0,60,-0.2544448803539334
169,8.35334240004886,-0.29,13.22,0.0,60,-0.2602903681686194
170,8.401050200103782,-0.29,13.22,0.0,60,-0.27154564311658586
171,8.46203960001003,-0.29,13.33,0.0,60,-0.2861897390510105
172,8.507732900092378,-0.29,14.53,0.0,60,-0.30209040185992253
173,8.55537020007614,-0.29,14.53,0.0,60,-0.3170344119761772
174,8.602972700027749,-0.29,14.31,0.0,60,-0.32875499409799336
175,8.651021300000139,-0.29,13.87,0.0,60,-0.334970707123342
176,8.70128320006188,-0.29,13.87,0.0,60,-0.33344920236269926
177,8.742969500017352,-0.29,13.87,0.0,60,-0.3221059749766815
178,8.789140700013377,-0.29,13.98,0.0,60,-0.2991427156962859
179,8.836649500066414,-0.29,13.98,0.0,60,-0.2632221722939068
180,8.883554300060496,-0.29,13.65,0.0,60,-0.21366673090232172
181,8.943581400089897,-0.29,13.76,0.0,60,-0.15065654110520688
182,9.005696800071746,-0.29,13.44,0.0,60,-0.07539041738141898
183,9.052410800009966,-0.29,14.63,0.0,60,0.009840383304310729
184,9.100955400033854,-0.29,14.74,0.0,60,0.10172824628186301
185,9.14749010000378,0.61,13.76,0.0,60,0.19623526021904328
186,9.19456730003003,0.61,14.53,0.0,55,0.2890876669274633
187,9.242846600012854,0.61,13.87,0.0,55,0.37635545483936533
188,9.302185200038366,0.61,13.87,0.0,55,0.4549252960698617
189,9.34920970001258,0.61,13.65,0.0,55,0.5227446341626704
190,9.395383600029165,0.61,13.87,0.0,55,0.5788375323106836
191,9.442275900044478,0.61,13.87,0.0,55,0.6231559032408458
192,9.50461629999336,0.61,13.76,0.0,55,0.6563338727709889
193,9.55217919999268,0.61,13.76,0.0,55,0.6794018662320833
194,9.612714800052345,0.61,13.76,0.0,55,0.6935056201415217
195,9.658889300073495,0.61,13.76,0.0,55,0.699664367292924
196,9.707010000012817,0.61,13.76,0.0,55,0.6985923238445493
197,9.75551680009812,0.61,13.76,0.0,55,0.6905984663101645
198,9.803609800059348,0.61,13.76,0.0,55,0.6755713430082498
199,9.84815190010704,0.61,13.76,0.0,55,0.6530480681034073
200,9.894769200007431,0.61,13.65,0.0,55,0.6223593504486856
201,9.941189100034537,0.61,13.65,0.0,54,0.5828350516461596
202,9.988311300054193,0.61,13.65,0.0,54,0.5340470492433069
203,10.035349700017832,0.61,13.65,0.0,54,0.47605793764122184
204,10.097551300073974,0.61,13.65,0.0,54,0.40963535695769654
205,10.143791900016367,0.61,13.65,0.0,54,0.33638274604629054
206,10.19199610000942,0.61,13.65,0.0,54,0.25872853815707714
207,10.23814560007304,-0.17,13.54,0.0,59,0.17972021702952873
208,10.284218700020574,-0.17,13.54,0.0,59,0.1026249056091302
209,10.331178300082684,-0.17,14.42,0.0,59,0.030444965191943247
210,10.37689150008373,-0.17,14.42,0.0,59,-0.03448256816986789
211,10.424347200081684,-0.17,14.42,0.0,59,-0.09069370193879346
212,10.471006200066768,-0.17,14.42,0.0,59,-0.13760967369149046
213,10.518858800060116,-0.17,13.65,0.0,59,-0.17540578369668758
214,10.563486400060356,-0.17,14.63,0.0,59,-0.2047932016896217
215,10.612146700033918,-0.17,14.74,0.0,59,-0.22676123981045362
216,10.656913900049403,-0.17,13.87,0.0,59,-0.24231876819583537
217,10.704947600024752,-0.17,13.54,0.0,59,-0.25226516478373245
218,10.75073870003689,-0.17,13.44,0.0,59,-0.2570137153073794
219,10.797739500063471,-0.17,13.65,0.0,59,-0.25648375393809403
220,10.844680300098844,-0.17,13.54,0.0,59,-0.25007188642176004
221,10.905731300008483,-0.17,13.65,0.0,59,-0.23670702672177493
222,10.953851000056602,-0.17,14.85,0.0,59,-0.2149882649410918
223,11.00134750001598,-0.17,13.54,0.0,59,-0.18339830294804568
224,11.062118500005454,-0.17,13.54,0.0,59,-0.14057793372845534
225,11.109874400077388,-0.17,14.96,0.0,59,-0.08563852368578607
226,11.156817100010812,-0.17,13.65,0.0,59,-0.018479610963982877
227,11.203633000026455,-0.17,13.65,0.0,59,0.059932255971022794
228,11.2511110000778,-0.17,13.87,0.0,59,0.1473789695572255
229,11.310509300092235,-0.17,13.98,0.0,59,0.24036768926820332
230,11.358271700097248,0.59,13.65,0.0,59,0.33433458148665524
231,11.405606700107455,0.68,13.98,0.0,54,0.42408780823569464
232,11.45226440008264,0.68,13.98,0.0,54,0.5043918503559246
233,11.499664400005711,0.68,13.98,0.0,54,0.5705230147875083
234,11.543820400023831,0.68,13.98,0.0,54,0.618674564177496
235,11.60600270004943,0.68,13.87,0.0,54,0.6461958021623186
236,11.652616700041108,0.68,13.87,0.0,54,0.65170856690915
237,11.700109500088727,0.68,13.87,0.0,54,0.635146374465217
238,11.745492900023237,0.68,13.98,0.0,54,0.597742980481768
239,11.79108360002283,0.68,13.87,0.0,54,0.541975877462488
240,11.840172399999574,0.68,13.87,0.0,54,0.471448918476557
241,11.885207800078206,0.68,13.54,0.0,54,0.3906781327539711
242,11.932415700051934,-0.0,13.87,0.0,54,0.30473781511016484
243,11.991842000046743,-0.08,13.87,0.0,58,0.2187646601204493
244,12.040521800052376,-0.08,13.87,0.0,58,0.1374106855354481
245,12.086414400022475,-0.08,13.76,0.0,58,0.06439554388759225
246,12.133192100096494,-0.08,13.76,0.0,58,0.0022610805551193528
247,12.181043800082987,-0.08,13.76,0.0,58,-0.047667931802975384
248,12.241690900060348,-0.08,13.87,0.0,58,-0.08517042079486092
249,12.28905860008672,-0.08,13.76,0.0,58,-0.11092349172072435
250,12.334187200060114,-0.08,13.65,0.0,58,-0.12625499304878526
251,12.38291200005915,-0.08,13.76,0.0,58,-0.13289252591605413
252,12.42952610005159,-0.08,13.87,0.0,58,-0.13273587529816863
253,12.476246100035496,-0.08,14.31,0.0,58,-0.12766961864812235
254,12.524551700102164,-0.08,14.09,0.0,58,-0.11942402213605316
255,12.570031200069934,-0.08,13.65,0.0,58,-0.1094854678999274
256,12.617339399992488,-0.08,13.44,0.0,58,-0.09905258786426176
257,12.664304800098762,-0.08,13.87,0.0,58,-0.08903089136797755
258,12.711690500029365,-0.08,13.98,0.0,58,-0.0800567526525441
259,12.757847600034438,-0.08,14.2,0.0,58,-0.07254090828051467
260,12.805116200004704,-0.08,13.65,0.0,58,-0.06672182974441622
261,12.852176700020207,-0.08,13.76,0.0,58,-0.0627202257966149
262,12.900081400061026,-0.08,13.98,0.0,58,-0.06058727206576541
263,12.977161400020124,-0.08,13.87,0.0,58,-0.06034078939118896
264,13.025762900011614,-0.08,13.87,0.0,58,-0.061985373578649444
265,13.069858800037764,-0.08,13.65,0.0,58,-0.06551433891396148
266,13.117322500096634,-0.08,13.98,0.0,58,-0.07089323025697605
267,13.16247010009829,-0.08,13.98,0.0,58,-0.07802655709410954
268,13.209328400087545,-0.08,13.98,0.0,58,-0.08671128254802438
269,13.256812200066634,-0.08,14.63,0.0,58,-0.09658242061472402
270,13.303136000060476,-0.08,13.65,0.0,58,-0.10705778446396975
271,13.350124100106768,-0.08,13.98,0.0,58,-0.11729037318169108
272,13.397540600039065,-0.08,13.87,0.0,58,-0.12613791986175776
273,13.4437705000164,-0.08,13.76,0.0,58,-0.1321595370094303
274,13.489270900026897,-0.08,13.98,0.0,58,-0.13364893133339403
275,13.536126799997874,-0.08,13.76,0.0,58,-0.12871204130731492
276,13.583502300083635,-0.08,13.76,0.0,58,-0.1153939030745595
277,13.630379700101912,-0.08,13.98,0.0,58,-0.09185483828825274
278,13.677885900018737,-0.08,14.31,0.0,58,-0.05658952802582965
279,13.724904700065965,-0.08,13.98,0.0,58,-0.008674164597947601
280,13.771145700011402,-0.08,14.2,0.0,58,0.05198319472718604
281,13.819358300068416,-0.08,13.76,0.0,58,0.12442535416034937
282,13.86575160000939,-0.08,14.09,0.0,58,0.20651022467889035
283,13.913947400054894,-0.08,14.74,0.0,58,0.2949171208997185
284,13.991448000073431,0.69,13.98,0.0,58,0.38535452233970513
285,14.039191600051709,0.7,13.98,0.0,54,0.4729766639037732
286,14.101130900089627,0.7,14.09,0.0,54,0.5529118228904343
287,14.163958300021475,0.7,13.98,0.0,54,0.6207446242120745
288,14.223821300081909,0.7,13.98,0.0,54,0.6728518009742431
289,14.27012250002008,0.7,13.98,0.0,53,0.7065935880046246
290,14.330622800043784,0.7,13.87,0.0,53,0.7204134697023851
291,14.392076499992982,0.7,13.98,0.0,53,0.7138967882531445
292,14.4394772000378,0.7,13.98,0.0,53,0.6878211341049547
293,14.487428900087252,0.7,13.87,0.0,53,0.6442121766443235
294,14.533679700107314,0.7,13.65,0.0,53,0.5863989508854922
295,14.581408000085505,0.7,13.87,0.0,53,0.5190438006526934
296,14.642175600049086,0.7,13.87,0.0,53,0.44810544718519113
297,14.688941200030968,0.7,13.87,0.0,53,0.38068029878041537
298,14.736152000026776,0.7,13.87,0.0,53,0.32465843588570664
299,15.8092742000008,-0.1,13.76,10.0,58,0.2881405418984887
300,15.855477700009942,-0.1,14.2,10.0,119,0.2786293009671008
301,15.902097400045022,-0.1,14.2,10.0,119,0.30213408376591666
302,15.963590800063685,-0.1,14.42,10.0,120,0.3624101234765009
303,16.010237600072287,-0.1,13.87,10.0,120,0.4605164182496652
304,16.05641880002804,0.66,14.09,10.0,121,0.5947826463086976
305,16.101816300069913,0.66,14.31,10.0,121,0.7611874316759912
306,16.149602900026366,1.4,14.85,10.0,117,0.9540542395470263
307,16.195264300098643,1.48,14.31,10.0,117,1.1668863317674736
308,16.24118480004836,1.48,14.42,10.0,113,1.393141991946141
309,16.288196500041522,1.48,15.4,10.0,113,1.6268155351952298
310,16.350848600035533,2.26,16.6,10.0,110,1.8628094878609252
311,16.397332600085065,2.27,14.85,10.0,110,2.0971589760733873
312,16.444341400056146,2.27,14.85,10.0,110,2.3271356827795238
313,16.49271470005624,2.27,14.96,10.0,110,2.5512169215822067
314,16.537530400091782,3.16,15.94,10.0,106,2.76895261623378
315,16.584900000016205,3.17,15.07,10.0,106,2.9808006533071985
316,16.645937700057402,3.17,15.51,10.0,106,3.1879316755160323
317,16.69241740007419,3.17,16.05,10.0,106,3.3919400869086305
318,16.753316899994388,3.17,15.29,10.0,107,3.5944622328614075
319,16.801053200033493,4.01,17.25,10.0,107,3.7968122330911056
320,16.84777930006385,4.01,15.4,10.0,102,3.9997481935347943
321,16.89953500009142,4.01,15.4,10.0,102,4.203375296177413
322,16.93974230007734,4.01,16.71,10.0,103,4.407125551756937
323,17.00201520009432,4.84,15.51,10.0,103,4.609807312087157
324,17.05131180002354,4.84,15.51,10.0,98,4.809771671620384
325,17.11002800008282,4.84,15.83,10.0,98,5.005190940475689
326,17.156247700098902,5.6,16.16,10.0,95,5.1943787158984405
327,17.20249560009688,5.6,15.72,10.0,95,5.376083731286274
328,17.25073140009772,5.6,15.83,10.0,95,5.549695117386856
329,17.298418599995784,5.6,15.94,10.0,95,5.715296252593144
330,17.359015900059603,5.6,15.94,10.0,95,5.873570366639963
